x(m),wallP(Pa)
2.250044437333333480e+00,2.092493113006883959e+03
2.251090240000000353e+00,2.092827762656971572e+03
2.252136042666666782e+00,2.093033461582711425e+03
2.253181845333333655e+00,2.093423210727155492e+03
2.254227648000000528e+00,2.093773546488821466e+03
2.255273450666666513e+00,2.094013132865805801e+03
2.256319253333333386e+00,2.094416555545278243e+03
2.257365056000000259e+00,2.094784749508640743e+03
2.258410858666667131e+00,2.095108252060293580e+03
2.259529470379746385e+00,2.094588185061702916e+03
2.260720891139240685e+00,2.095010198196246165e+03
2.261912311898734984e+00,2.095448225381085649e+03
2.263103732658227951e+00,2.095935609786877194e+03
2.264295153417721806e+00,2.096657097555094879e+03
2.265486574177216106e+00,2.099118877235242962e+03
2.266677994936709073e+00,2.109281203087927679e+03
2.267869415696202928e+00,2.156746948402017551e+03
2.269060836455696339e+00,2.406344517581418131e+03
2.270252257215190195e+00,2.921736521633467419e+03
2.271443677974684050e+00,3.420549709505674855e+03
2.272635098734177461e+00,3.835728347754009974e+03
2.273826519493670872e+00,4.180152015785184631e+03
2.275017940253164284e+00,4.474555246939810786e+03
2.276209361012657695e+00,4.728057121097860545e+03
2.277400781772151994e+00,4.944720350924608283e+03
2.278592202531645405e+00,5.154580613013488801e+03
2.279783623291139261e+00,5.331730454424059644e+03
2.280975044050633116e+00,5.510935770870320084e+03
2.282166464810126527e+00,5.664598193818377695e+03
2.283357885569620382e+00,5.829045703467461863e+03
2.284549306329114238e+00,5.974431522277528529e+03
2.285740727088607649e+00,6.126168215411912570e+03
2.286932147848101060e+00,6.263213348536212834e+03
2.288123568607595359e+00,6.397280560686809622e+03
2.289314989367088771e+00,6.526322186879830952e+03
2.290506410126582182e+00,6.647610743689769151e+03
2.291697830886075593e+00,6.765205827618025069e+03
2.292889251645569892e+00,6.878457750485301403e+03
2.294080672405063304e+00,6.987700793962094394e+03
2.295272093164556715e+00,7.093934680881607164e+03
2.296463513924051014e+00,7.197138413722351288e+03
2.297654934683544425e+00,7.297138850053920578e+03
2.298846355443037837e+00,7.395347461275352543e+03
2.300037776202531692e+00,7.490962703340660482e+03
2.301229196962025547e+00,7.584588080364396774e+03
2.302420617721518958e+00,7.676352530924885286e+03
2.303612038481012370e+00,7.766179393076554334e+03
2.304803459240506669e+00,7.854270336350742582e+03
2.305994880000000080e+00,7.940847301351308488e+03
2.307186300759493491e+00,8.025735244148117090e+03
2.308377721518987791e+00,8.109114295257165395e+03
2.309569142278481202e+00,8.190959628703323688e+03
2.310760563037974613e+00,8.271284708826922724e+03
2.311951983797468024e+00,8.350214803776741974e+03
2.313143404556962324e+00,8.427777040203558499e+03
2.314334825316455735e+00,8.504073767989755652e+03
2.315526246075949146e+00,8.579246456059570846e+03
2.316717666835443445e+00,8.653326577000556426e+03
2.317909087594936857e+00,8.726406791509925824e+03
2.319100508354430268e+00,8.798666875434248141e+03
2.320291929113923679e+00,8.870181827623471690e+03
2.321483349873417978e+00,8.940975630521954372e+03
2.322674770632911390e+00,9.011205619417927664e+03
2.323866191392404801e+00,9.080660227152897278e+03
2.325057612151898656e+00,9.149446378643169737e+03
2.326249032911392511e+00,9.217270180975327094e+03
2.327440453670885923e+00,9.283936659567558308e+03
2.328631874430379778e+00,9.349168180570623008e+03
2.329823295189873633e+00,9.412639369800437635e+03
2.331014715949367044e+00,9.474122941103545600e+03
2.332206136708860900e+00,9.532773663827025302e+03
2.333397557468354755e+00,9.588650064477165870e+03
2.334588978227848166e+00,9.641403795968752092e+03
2.335780398987341577e+00,9.690971287738597312e+03
2.336971819746835433e+00,9.737574970696710807e+03
2.338163240506329288e+00,9.781641402638482759e+03
2.339354661265822699e+00,9.824261517833565449e+03
2.340546082025316110e+00,9.866880038066617999e+03
2.341737502784810410e+00,9.911746835798987377e+03
2.342928923544303821e+00,9.962375229281997235e+03
2.344120344303797232e+00,1.002270243314576146e+04
2.345311765063291087e+00,1.009914113412877850e+04
2.346503185822784943e+00,1.018588542721717386e+04
2.347694606582278354e+00,1.033447632894836170e+04
2.348886027341771765e+00,1.052486297050880785e+04
2.350077448101266064e+00,1.075394954233391763e+04
2.351268868860759476e+00,1.105140932390073795e+04
2.352460289620252887e+00,1.205235056440918925e+04
2.353370854166666692e+00,1.084229829331266592e+04
2.354000562500000449e+00,1.100550075829106208e+04
2.354630270833334205e+00,1.082470711791160102e+04
2.355259979166667073e+00,1.073299468793012966e+04
2.355889687499999940e+00,1.069915475549453186e+04
2.356519395833333252e+00,1.072980443516864943e+04
2.357149104166666564e+00,1.079993627370460672e+04
2.357778812500000321e+00,1.091039487956594166e+04
2.358408520833333633e+00,1.103529273064999688e+04
2.359038229166666945e+00,1.117783336064289688e+04
2.359667937500000257e+00,1.133629034461520860e+04
2.360297645833333569e+00,1.151280834393181613e+04
2.360927354166666436e+00,1.170304512765066829e+04
2.361557062500000193e+00,1.190645363930085841e+04
2.362186770833333505e+00,1.212095395820346130e+04
2.362816479166666817e+00,1.234719696667088101e+04
2.363446187499999684e+00,1.258227644056425743e+04
2.364075895833332996e+00,1.282879130028334657e+04
2.364705604166666753e+00,1.308450070265266550e+04
2.365335312500000065e+00,1.334962362769862193e+04
2.365965020833333377e+00,1.362419859126004121e+04
2.366594729166667133e+00,1.390770703524478813e+04
2.367224437500000445e+00,1.419996563361579501e+04
2.367854145833333313e+00,1.450143076974666474e+04
2.368483854166666625e+00,1.481169785597223381e+04
2.369113562499999937e+00,1.513222928287123432e+04
2.369743270833333249e+00,1.546121242362428893e+04
2.370372979166666561e+00,1.579982152607884564e+04
2.371002687499999873e+00,1.614902847596472202e+04
2.371632395833333184e+00,1.650862700018970281e+04
2.372262104166666496e+00,1.687884289174361038e+04
2.372891812499999808e+00,1.726098923409164126e+04
2.373521520833333120e+00,1.765486902026495954e+04
2.374151229166667321e+00,1.806105163511020874e+04
2.374780937500000633e+00,1.848075008645688649e+04
2.375410645833333056e+00,1.891464461999816558e+04
2.376040354166665924e+00,1.936238400836383153e+04
2.376670062499999680e+00,1.982568496337269971e+04
2.377299770833333437e+00,2.030471631070190779e+04
2.377929479166666749e+00,2.080044746155400935e+04
2.378559187499999616e+00,2.131310070329569862e+04
2.379188895833332928e+00,2.184392184881326102e+04
2.379818604166666240e+00,2.239293223237180064e+04
2.380448312499999997e+00,2.296146184360014013e+04
2.381078020833333309e+00,2.354998747123741850e+04
2.381707729166666621e+00,2.415839284498216875e+04
2.382337437500000377e+00,2.478644769841665766e+04
2.382967145833333689e+00,2.543406240084590172e+04
2.383596854166666557e+00,2.610157008470604342e+04
2.384226562499999869e+00,2.678884585868824070e+04
2.384856270833333181e+00,2.749529434848245364e+04
2.385485979166666937e+00,2.822045254232084699e+04
2.386115687500000249e+00,2.896492280536630278e+04
2.386745395833333561e+00,2.972897374768219379e+04
2.387375104166666873e+00,3.051531293197609193e+04
2.388004812500000185e+00,3.132527413849446748e+04
2.388634520833333053e+00,3.215765569428891467e+04
2.389264229166666809e+00,3.301389944333710446e+04
2.389893937500000121e+00,3.389342473598057404e+04
2.390523645833333433e+00,3.479890870745812572e+04
2.391153354166666745e+00,3.573016810384335986e+04
2.391783062500000057e+00,3.668937100413650478e+04
2.392412770833333369e+00,3.767920016622916592e+04
2.393042479166666681e+00,3.869485267473259591e+04
2.393672187499999993e+00,3.973557779146959365e+04
2.394301895833333305e+00,4.079847083586631197e+04
2.394931604166666617e+00,4.188393944446268142e+04
2.395561312499999929e+00,4.299689534533238475e+04
2.396191020833333241e+00,4.413399610955321987e+04
2.396820729166666553e+00,4.530095643201046187e+04
2.397450437499999865e+00,4.649449163104753097e+04
2.398080145833333177e+00,4.770003800859207695e+04
2.398709854166666489e+00,4.891220654551636835e+04
2.399339562500000245e+00,5.013712781340283982e+04
2.399969270833333557e+00,5.137095329468401906e+04
2.400598979166666425e+00,5.260705119841120904e+04
2.401228687499999737e+00,5.385155870971917466e+04
2.401858395833333049e+00,5.510407241133950447e+04
2.402488104166666805e+00,5.635449559542530915e+04
2.403117812500000117e+00,5.760664677268920786e+04
2.403747520833333429e+00,5.885620169210755557e+04
2.404377229166666741e+00,6.010374363078144961e+04
2.405006937500000053e+00,6.134403452079780254e+04
2.405636645833333365e+00,6.257308136029136949e+04
2.406266354166666233e+00,6.378625438158238831e+04
2.406896062499999545e+00,6.497407748969102977e+04
2.407525770833332857e+00,6.612739273231034167e+04
2.408155479166666169e+00,6.725639708599064033e+04
2.408785187499999925e+00,6.831999300295377907e+04
2.409414895833333237e+00,6.932857878208569309e+04
2.410044604166666549e+00,7.026542210071891895e+04
2.410674312499999861e+00,7.113884669882243907e+04
2.411304020833333617e+00,7.197103063260779891e+04
2.411933729166666929e+00,7.277760773062822409e+04
2.412563437500000241e+00,7.359465111675273511e+04
2.413193145833333553e+00,7.441741264296470035e+04
2.413822854166666865e+00,7.525196200563777529e+04
2.414452562500000177e+00,7.608637694343824114e+04
2.415082270833333489e+00,7.684125373711690190e+04
2.415711979166666801e+00,7.744881775766662031e+04
2.416341687500000113e+00,7.783071461569787061e+04
2.416971395833333425e+00,7.798138340887965751e+04
2.417601104166666737e+00,7.784400703510154563e+04
2.418230812500000049e+00,7.750400687899427430e+04
2.418860520833333361e+00,7.693288775773496309e+04
2.419490229166666673e+00,7.627130037179602368e+04
2.420119937499999985e+00,7.548576016598504793e+04
2.420749645833333297e+00,7.462296170408464968e+04
2.421379354166666609e+00,7.368410821851179935e+04
2.422009062499999921e+00,7.265717982844651851e+04
2.422638770833333233e+00,7.158144909452072170e+04
2.423268479166666545e+00,7.048497941195464227e+04
2.423898187499999857e+00,6.940026880154418177e+04
2.424527895833333169e+00,6.834208339969560620e+04
2.425157604166666481e+00,6.733370775842267903e+04
2.425787312499999793e+00,6.639312854380905628e+04
2.426417020833333105e+00,6.552796492789482727e+04
2.427046729166666417e+00,6.476827965858027892e+04
2.427676437499999729e+00,6.414121478141569241e+04
2.428306145833333041e+00,6.358936987867621792e+04
2.428935854166666353e+00,6.314105137552666565e+04
2.429565562499999665e+00,6.275278857769968454e+04
2.430195270833332977e+00,6.239794829927632964e+04
2.430824979166666289e+00,6.207550288838188135e+04
2.431454687499999601e+00,6.177538496128284896e+04
2.432084395833332913e+00,6.148625068244561407e+04
2.432714104166666669e+00,6.119346051621563674e+04
2.433343812499999981e+00,6.089720921795845788e+04
2.433973520833333293e+00,6.058893317174216645e+04
2.434603229166666161e+00,6.028307801590022427e+04
2.435232937499999473e+00,5.997085840015589201e+04
2.435862645833333229e+00,5.966167717462305882e+04
2.436492354166666541e+00,5.934573681955981010e+04
2.437122062500000297e+00,5.902698817043847521e+04
2.437751770833333609e+00,5.870721788152844238e+04
2.438381479166666921e+00,5.839874383439531084e+04
2.439011187499999789e+00,5.807763946829821361e+04
2.439640895833333101e+00,5.777951373090942070e+04
2.440270604166666857e+00,5.748213883223654557e+04
2.440900312500000169e+00,5.719325348069805477e+04
2.441530020833333481e+00,5.691705847328658274e+04
2.442159729166666793e+00,5.664516373789309000e+04
2.442789437500000105e+00,5.639090817808782595e+04
2.443419145833333417e+00,5.616105131147100474e+04
2.444048854166666729e+00,5.593121884849426715e+04
2.444678562500000041e+00,5.571978661778564856e+04
2.445308270833333353e+00,5.551760601409105584e+04
2.445937979166666665e+00,5.533560709004307864e+04
2.446567687499999977e+00,5.516124865372532076e+04
2.447197395833333289e+00,5.500641413005054346e+04
2.447827104166666601e+00,5.485869833016825578e+04
2.448456812499999913e+00,5.471477273662693915e+04
2.449086520833333225e+00,5.459196634186088340e+04
2.449716229166666537e+00,5.447199993681650085e+04
2.450345937499999849e+00,5.436928572227283439e+04
2.450975645833333161e+00,5.427187299631400674e+04
2.451605354166666473e+00,5.420185084630770871e+04
2.452235062499999785e+00,5.412177773099190381e+04
2.452864770833333097e+00,5.405502966660039965e+04
2.453494479166666409e+00,5.400005663652673684e+04
2.454124187499999721e+00,5.394642449648478942e+04
2.454753895833333033e+00,5.390052008970174938e+04
2.455383604166666345e+00,5.386475219059905066e+04
2.456013312499999657e+00,5.383340143061028357e+04
2.456643020833332969e+00,5.380049329106801451e+04
2.457272729166666281e+00,5.377856442707970564e+04
2.457902437499999593e+00,5.376163348369695450e+04
2.458532145833333349e+00,5.373741695827755757e+04
2.459161854166666661e+00,5.372346591840958718e+04
2.459791562499999973e+00,5.371975983372037444e+04
2.460421270833333285e+00,5.370081464070133370e+04
2.461050979166666597e+00,5.369586449309084855e+04
2.461680687499999909e+00,5.368849257071234751e+04
2.462310395833333221e+00,5.367982875112880720e+04
2.462940104166666533e+00,5.367455644100983045e+04
2.463569812499999845e+00,5.366718515530943841e+04
2.464199520833333157e+00,5.366702650501143216e+04
2.464829229166666913e+00,5.365584390341402468e+04
2.465458937500000225e+00,5.365568864256468805e+04
2.466088645833333093e+00,5.365071808845113992e+04
2.466718354166666405e+00,5.364398626145210437e+04
2.467348062499999717e+00,5.363690823704478680e+04
2.467977770833333473e+00,5.363814716209053586e+04
2.468607479166666785e+00,5.363031391179370985e+04
2.469237187500000097e+00,5.363487454098470334e+04
2.469866895833333409e+00,5.363561316448914295e+04
2.470496604166666721e+00,5.364036412142559129e+04
2.471126312500000033e+00,5.364183489544026088e+04
2.471756020833333345e+00,5.365221972214602283e+04
2.472385729166666657e+00,5.365464474593944033e+04
2.473015437499999969e+00,5.366300020683163166e+04
2.473645145833333281e+00,5.367812963105193921e+04
2.474274854166666593e+00,5.369408077656313253e+04
2.474904562499999905e+00,5.370704735611225624e+04
2.475534270833333217e+00,5.371965710228208627e+04
2.476163979166666529e+00,5.372971246319208876e+04
2.476793687499999841e+00,5.374535719071365747e+04
2.477423395833333153e+00,5.376126740984567732e+04
2.478053104166666465e+00,5.377071265192244027e+04
2.478682812499999777e+00,5.378119753159623360e+04
2.479312520833333089e+00,5.378257005844863306e+04
2.479942229166666401e+00,5.378864697102520586e+04
2.480571937499999713e+00,5.379721254389814567e+04
2.481201645833333025e+00,5.379258273748482316e+04
2.481831354166666337e+00,5.379167144665354863e+04
2.482461062499999649e+00,5.378835210123317665e+04
2.483090770833332961e+00,5.377526603116226033e+04
2.483720479166666273e+00,5.376556265712873574e+04
2.484350187499999585e+00,5.375545662092117709e+04
2.484979895833332897e+00,5.373585111268211767e+04
2.485609604166666209e+00,5.371967341148423293e+04
2.486239312499999521e+00,5.370170747776996723e+04
2.486869020833332833e+00,5.368068178380065365e+04
2.487498729166666589e+00,5.366055364139426092e+04
2.488128437499999901e+00,5.364219425363976916e+04
2.488758145833333213e+00,5.361813823389741447e+04
2.489387854166666525e+00,5.359990972361170861e+04
2.490017562499999837e+00,5.356971011008475762e+04
2.490647270833333149e+00,5.354417264808445179e+04
2.491276979166666461e+00,5.352661564793261641e+04
2.491906687500000217e+00,5.350032614318287233e+04
2.492536395833333529e+00,5.347054091445459926e+04
2.493166104166666397e+00,5.344651522994750849e+04
2.493795812499999709e+00,5.342183986921879114e+04
2.494425520833333465e+00,5.339384324276162079e+04
2.495055229166666777e+00,5.337280519334150449e+04
2.495684937500000089e+00,5.334571919926242117e+04
2.496314645833333401e+00,5.332168863075746049e+04
2.496944354166666269e+00,5.330181550298694492e+04
2.497574062499999581e+00,5.327527177556977404e+04
2.498203770833333337e+00,5.325942816853737895e+04
2.498833479166666649e+00,5.323569410015203903e+04
2.499463187499999961e+00,5.321611282204850431e+04
