x(m),wallP(Pa)
2.250443934999999840e+00,1.534077166000000034e+04
2.251112460999999954e+00,1.534074348999999893e+04
2.251780987000000067e+00,1.534071072000000095e+04
2.252449512000000098e+00,1.534067427999999927e+04
2.253118038000000212e+00,1.534063243999999941e+04
2.253786563999999881e+00,1.534058957999999984e+04
2.254454851000000204e+00,1.534054489000000103e+04
2.255123376999999874e+00,1.534049839000000065e+04
2.255791902999999987e+00,1.534045006000000103e+04
2.256460428000000018e+00,1.534039912999999979e+04
2.257128954000000132e+00,1.534034901999999965e+04
2.257797241000000010e+00,1.534029617999999937e+04
2.258465767000000124e+00,1.534024428999999873e+04
2.259134292999999793e+00,1.534018241999999918e+04
2.259802817999999824e+00,1.534012415999999939e+04
2.260471343999999938e+00,1.534006866000000082e+04
2.261139630999999817e+00,1.534000954000000092e+04
2.261808156999999930e+00,1.533995046000000002e+04
2.262476683000000044e+00,1.533988141999999971e+04
2.263145208000000075e+00,1.533982147999999870e+04
2.263813734000000188e+00,1.533976709000000119e+04
2.264482259999999858e+00,1.533971091000000160e+04
2.265150547000000181e+00,1.533965473000000020e+04
2.265819072999999850e+00,1.533959598000000005e+04
2.266487597999999881e+00,1.533954265999999916e+04
2.267156123999999995e+00,1.533949027000000024e+04
2.267824650000000108e+00,1.533943790999999874e+04
2.268492936999999987e+00,1.533938753999999972e+04
2.269161463000000101e+00,1.533934350000000086e+04
2.269829988000000132e+00,1.533930407000000014e+04
2.270498513999999801e+00,1.533926650000000154e+04
2.271167039999999915e+00,1.533923077999999987e+04
2.271835566000000028e+00,1.533919520000000011e+04
2.272503852999999907e+00,1.533916226999999890e+04
2.273172379000000021e+00,1.533913210999999865e+04
2.273840904000000052e+00,1.533910377999999946e+04
2.274509430000000165e+00,1.533907561999999962e+04
2.275177955999999835e+00,1.533904916999999841e+04
2.275846243000000158e+00,1.533902455000000009e+04
2.276514768999999827e+00,1.533900086000000010e+04
2.277183293999999858e+00,1.533897628000000077e+04
2.277851819999999972e+00,1.533894821000000047e+04
2.278520346000000085e+00,1.533892362999999932e+04
2.279188871000000116e+00,1.533889545999999973e+04
2.279857159000000077e+00,1.533886909000000014e+04
2.280525684000000108e+00,1.533884107000000040e+04
2.281194210000000222e+00,1.533880382000000100e+04
2.281862735999999892e+00,1.533877387000000090e+04
2.282531260999999922e+00,1.533875306000000091e+04
2.283199548999999884e+00,1.533873041999999987e+04
2.283868073999999915e+00,1.533870067000000017e+04
2.284536600000000028e+00,1.533867624000000069e+04
2.285205126000000142e+00,1.533865365999999995e+04
2.285873651999999812e+00,1.533863292999999976e+04
2.286542176999999842e+00,1.533861764000000039e+04
2.287210464000000165e+00,1.533860433000000012e+04
2.287878989999999835e+00,1.533859634999999980e+04
2.288547515999999948e+00,1.533859202000000005e+04
2.289216042000000062e+00,1.533859496000000036e+04
2.289884567000000093e+00,1.533860164999999870e+04
2.290552855000000054e+00,1.533861548000000039e+04
2.291221380000000085e+00,1.533863475999999901e+04
2.291889906000000199e+00,1.533865948000000026e+04
2.292558431999999868e+00,1.533868600999999944e+04
2.293226956999999899e+00,1.533870536999999968e+04
2.293895244999999861e+00,1.533878628000000026e+04
2.294563769999999892e+00,1.534123970999999983e+04
2.295232296000000005e+00,1.535143103999999948e+04
2.295900822000000119e+00,1.545376029000000017e+04
2.296569347000000150e+00,1.670251149000000078e+04
2.297237872999999819e+00,2.352753922000000239e+04
2.297906160000000142e+00,3.009814597000000140e+04
2.298574685999999812e+00,3.438172177999999985e+04
2.299243211999999925e+00,3.717905076000000554e+04
2.299911736999999956e+00,3.922892240000000311e+04
2.300580263000000070e+00,4.077963969000000361e+04
2.301248549999999948e+00,4.202302063999999518e+04
2.301917076000000062e+00,4.304888244000000122e+04
2.302585602000000176e+00,4.392422015999999712e+04
2.303254127999999845e+00,4.470416998000000603e+04
2.303922652999999876e+00,4.540730983000000560e+04
2.304591178999999990e+00,4.605345320999999967e+04
2.305259465999999868e+00,4.665077266000000236e+04
2.305927991999999982e+00,4.721022992999999406e+04
2.306596518000000096e+00,4.773725876000000426e+04
2.307265043000000126e+00,4.823694204000000173e+04
2.307933568999999796e+00,4.871407147000000259e+04
2.308601856000000119e+00,4.917062647000000288e+04
2.309270381999999788e+00,4.961067268999999942e+04
2.309938907999999902e+00,5.003282110000000102e+04
2.310607432999999933e+00,5.044244045999999798e+04
2.311275959000000046e+00,5.083849177999999665e+04
2.311944485000000160e+00,5.122288801999999851e+04
2.312612772000000039e+00,5.159595421999999962e+04
2.313281298000000152e+00,5.195954260000000068e+04
2.313949823000000183e+00,5.231337352000000101e+04
2.314618348999999853e+00,5.265878398000000016e+04
2.315286874999999966e+00,5.299579258000000118e+04
2.315955161999999845e+00,5.332518463000000338e+04
2.316623687999999959e+00,5.364693791000000056e+04
2.317292212999999990e+00,5.396158471999999892e+04
2.317960739000000103e+00,5.426915376000000106e+04
2.318629265000000217e+00,5.457003302999999869e+04
2.319297552000000096e+00,5.486430013999999937e+04
2.319966078000000209e+00,5.515227287000000069e+04
2.320634603999999879e+00,5.543406545999999798e+04
2.321303128999999910e+00,5.570992835000000196e+04
2.321971655000000023e+00,5.597998625000000175e+04
2.322640181000000137e+00,5.624446263000000181e+04
2.323308468000000016e+00,5.650352361999999994e+04
2.323976994000000129e+00,5.675738256999999430e+04
2.324645519000000160e+00,5.700620672000000195e+04
2.325314044999999830e+00,5.725016258999999991e+04
2.325982570999999943e+00,5.748936877000000095e+04
2.326650857999999822e+00,5.772391978000000381e+04
2.327319383999999935e+00,5.795384988999999769e+04
2.327987908999999966e+00,5.817913554999999906e+04
2.328656435000000080e+00,5.839968059000000358e+04
2.329324961000000194e+00,5.861535683000000427e+04
2.329993485999999780e+00,5.882596567000000505e+04
2.330661774000000186e+00,5.903127418000000034e+04
2.331330299000000217e+00,5.923098415999999997e+04
2.331998824999999886e+00,5.942475418000000354e+04
2.332667351000000000e+00,5.961221540999999706e+04
2.333335876000000031e+00,5.979301150999999663e+04
2.334004163999999992e+00,5.996676372999999876e+04
2.334672689000000023e+00,6.013312169999999605e+04
2.335341215000000137e+00,6.029180637000000570e+04
2.336009740999999806e+00,6.044255437000000529e+04
2.336678266999999920e+00,6.058519306000000506e+04
2.337346791999999951e+00,6.071969428999999946e+04
2.338015078999999830e+00,6.084563799000000290e+04
2.338683604999999943e+00,6.096428485999999975e+04
2.339352131000000057e+00,6.107540517999999429e+04
2.340020657000000170e+00,6.118022972999999911e+04
2.340689182000000201e+00,6.127997997000000032e+04
2.341357470000000163e+00,6.137652339000000211e+04
2.342025995000000194e+00,6.147229414000000543e+04
2.342694520999999863e+00,6.157046151000000100e+04
2.343363046999999977e+00,6.167493137999999453e+04
2.344031572000000008e+00,6.179044971000000078e+04
2.344700098000000121e+00,6.192285786999999982e+04
2.345368385000000000e+00,6.207910525000000052e+04
2.346036911000000114e+00,6.226589085999999952e+04
2.346705436999999783e+00,6.249241143000000011e+04
2.347373961999999814e+00,6.276469713000000047e+04
2.348042487999999928e+00,6.320400190000000293e+04
2.348710774999999806e+00,6.373589072000000306e+04
2.349379300999999920e+00,6.431090131000000838e+04
2.350047827000000034e+00,6.509121048999999766e+04
2.350716352000000064e+00,6.603342788999999175e+04
2.351384878000000178e+00,6.723924927999998908e+04
2.352053165000000057e+00,6.866166337999999814e+04
2.352721691000000170e+00,7.249849851000000490e+04
2.353314876999999861e+00,6.606732125999999698e+04
2.353832244999999990e+00,6.713188053999999829e+04
2.354349851999999910e+00,6.602639630000000761e+04
2.354867458000000191e+00,6.532542831000000297e+04
2.355385065000000111e+00,6.488530643999999302e+04
2.355902672000000031e+00,6.488322596999999951e+04
2.356420278999999951e+00,6.507461788000000524e+04
2.356937647000000080e+00,6.543652115999999660e+04
2.357455254000000000e+00,6.593846937999999500e+04
2.357972859999999837e+00,6.657140327999999863e+04
2.358490467000000201e+00,6.725956678999999713e+04
2.359008074000000121e+00,6.800731467999999586e+04
2.359525681000000041e+00,6.883524036999999953e+04
2.360043286999999879e+00,6.972560318999999436e+04
2.360560656000000090e+00,7.067501416999999492e+04
2.361078261999999928e+00,7.167726703000000271e+04
2.361595868999999848e+00,7.273045634999999311e+04
2.362113476000000212e+00,7.383278837000000931e+04
2.362631083000000132e+00,7.498337050999999337e+04
2.363148688999999969e+00,7.618146742000000086e+04
2.363666058000000181e+00,7.742656504999999015e+04
2.364183664000000018e+00,7.871828001999999105e+04
2.364701270999999938e+00,8.005621646999999939e+04
2.365218877999999858e+00,8.143995003999999608e+04
2.365736484999999778e+00,8.286906937000001199e+04
2.366254091000000059e+00,8.434306566999999632e+04
2.366771459999999827e+00,8.586131600999999500e+04
2.367289066000000108e+00,8.742311946000000171e+04
2.367806673000000028e+00,8.902771674999999232e+04
2.368324279999999948e+00,9.067422982999999658e+04
2.368841886999999868e+00,9.236185767000001215e+04
2.369359493000000150e+00,9.408965016999999352e+04
2.369876861999999917e+00,9.585664221999999427e+04
2.370394468000000199e+00,9.766188607999999658e+04
2.370912075000000119e+00,9.950460662000000593e+04
2.371429682000000039e+00,1.013840636999999988e+05
2.371947288999999959e+00,1.032996106000000000e+05
2.372464894999999796e+00,1.052506719999999914e+05
2.372982502000000160e+00,1.072369867999999988e+05
2.373499869999999845e+00,1.092583760000000038e+05
2.374017477000000209e+00,1.113150886000000028e+05
2.374535084000000129e+00,1.134080221000000020e+05
2.375052691000000049e+00,1.155374678999999887e+05
2.375570296999999886e+00,1.177038908999999985e+05
2.376087903999999806e+00,1.199079324000000051e+05
2.376605271999999935e+00,1.221501125000000029e+05
2.377122878999999855e+00,1.244305077000000019e+05
2.377640486000000219e+00,1.267485721999999951e+05
2.378158092000000057e+00,1.291031370999999926e+05
2.378675698999999977e+00,1.314925364000000118e+05
2.379193305999999897e+00,1.339143840000000200e+05
2.379710674000000026e+00,1.363660285999999905e+05
2.380228280999999946e+00,1.388445397000000230e+05
2.380745887999999866e+00,1.413472797000000137e+05
2.381263494000000147e+00,1.438722596000000194e+05
2.381781101000000067e+00,1.464180877000000037e+05
2.382298707999999987e+00,1.489843705999999947e+05
2.382816076000000116e+00,1.515707353999999759e+05
2.383333683000000036e+00,1.541787257999999856e+05
2.383851289999999956e+00,1.568089995999999810e+05
2.384368895999999793e+00,1.594630468000000110e+05
2.384886503000000157e+00,1.621407815000000119e+05
2.385404110000000077e+00,1.648452519999999786e+05
2.385921716999999997e+00,1.675770709999999963e+05
2.386439085000000127e+00,1.703336391000000003e+05
2.386956692000000047e+00,1.731144860999999801e+05
2.387474297999999884e+00,1.759170344000000041e+05
2.387991904999999804e+00,1.787366560000000172e+05
2.388509512000000168e+00,1.815682069000000192e+05
2.389027119000000088e+00,1.844056062999999849e+05
2.389544487000000217e+00,1.872427548999999999e+05
2.390062094000000137e+00,1.900747232000000076e+05
2.390579699999999974e+00,1.928974375999999756e+05
2.391097306999999894e+00,1.957092952000000223e+05
2.391614913999999814e+00,1.985115316999999923e+05
2.392132521000000178e+00,2.013056919999999809e+05
2.392649888999999863e+00,2.040978910000000033e+05
2.393167495999999783e+00,2.068929813999999897e+05
2.393685102000000064e+00,2.096936106999999902e+05
2.394202708999999984e+00,2.125010799000000115e+05
2.394720315999999904e+00,2.153117236999999732e+05
2.395237922999999824e+00,2.181177268000000040e+05
2.395755290999999954e+00,2.209072042999999830e+05
2.396272897999999874e+00,2.236654685999999929e+05
2.396790504000000155e+00,2.263772355000000098e+05
2.397308111000000075e+00,2.290294841000000015e+05
2.397825717999999995e+00,2.316142509000000136e+05
2.398343324999999915e+00,2.341308582999999926e+05
2.398860693000000044e+00,2.365865783000000229e+05
2.399378299999999964e+00,2.389955113999999885e+05
2.399895905999999801e+00,2.413767468999999983e+05
2.400413513000000165e+00,2.437494617000000144e+05
2.400931120000000085e+00,2.461279486999999790e+05
2.401448727000000005e+00,2.485158060000000114e+05
2.401966332999999842e+00,2.509007458000000042e+05
2.402483702000000054e+00,2.532559684000000125e+05
2.403001307999999892e+00,2.555477287000000069e+05
2.403518914999999811e+00,2.577454860999999801e+05
2.404036522000000176e+00,2.598295099000000046e+05
2.404554129000000096e+00,2.618015707999999868e+05
2.405071734999999933e+00,2.636869890000000014e+05
2.405589104000000145e+00,2.655393604000000050e+05
2.406106709999999982e+00,2.674137743999999948e+05
2.406624316999999902e+00,2.693440466000000015e+05
2.407141923999999822e+00,2.713361912000000011e+05
2.407659531000000186e+00,2.733561878000000142e+05
2.408177137000000023e+00,2.753439720999999554e+05
2.408694505999999791e+00,2.772325394000000088e+05
2.409212112000000072e+00,2.789823673999999883e+05
2.409729718999999992e+00,2.806048675999999978e+05
2.410247325999999912e+00,2.821560102000000188e+05
2.410764932999999832e+00,2.837145858000000007e+05
2.411282539000000114e+00,2.853406283999999869e+05
2.411799907999999881e+00,2.870614464999999618e+05
2.412317514000000163e+00,2.888142056999999913e+05
2.412835121000000083e+00,2.905611774000000441e+05
2.413352728000000003e+00,2.920173485999999684e+05
2.413870334999999923e+00,2.933432493000000250e+05
2.414387941000000204e+00,2.938912498999999953e+05
2.414905548000000124e+00,2.941602773999999627e+05
2.415422915999999809e+00,2.936427641999999760e+05
2.415940523000000173e+00,2.927550135000000009e+05
2.416458130000000093e+00,2.913776405999999843e+05
2.416975737000000013e+00,2.895939239999999991e+05
2.417493342999999850e+00,2.875033280000000377e+05
2.418010950000000214e+00,2.852266652999999933e+05
2.418528317999999899e+00,2.829028445999999531e+05
2.419045924999999819e+00,2.806396080000000075e+05
2.419563532000000183e+00,2.785795021000000415e+05
2.420081139000000103e+00,2.767435230999999912e+05
2.420598744999999941e+00,2.752018555000000051e+05
2.421116351999999861e+00,2.739172998000000371e+05
2.421633719999999990e+00,2.728141129000000074e+05
2.422151326999999910e+00,2.718310958000000101e+05
2.422668933999999830e+00,2.709170352999999886e+05
2.423186541000000194e+00,2.700361987000000081e+05
2.423704147000000031e+00,2.691727946999999695e+05
2.424221753999999951e+00,2.683284330000000191e+05
2.424739122000000080e+00,2.675129486000000034e+05
2.425256729000000000e+00,2.667329729999999981e+05
2.425774335999999920e+00,2.659865099000000046e+05
2.426291942999999840e+00,2.652618368000000482e+05
2.426809549000000121e+00,2.645457137999999686e+05
2.427327156000000041e+00,2.638212849999999744e+05
2.427844762999999961e+00,2.630867456999999704e+05
2.428362131000000090e+00,2.623292258000000147e+05
2.428879738000000010e+00,2.615709901000000245e+05
2.429397344999999930e+00,2.608038536000000313e+05
2.429914951000000212e+00,2.600332794000000285e+05
2.430432558000000132e+00,2.592445306999999739e+05
2.430950165000000052e+00,2.584698672999999835e+05
2.431467533000000181e+00,2.577077502999999851e+05
2.431985140000000101e+00,2.569712913000000117e+05
2.432502747000000021e+00,2.562656577000000107e+05
2.433020352999999858e+00,2.555847860999999975e+05
2.433537960000000222e+00,2.549202103000000061e+05
2.434055567000000142e+00,2.542663287000000128e+05
2.434572934999999827e+00,2.536204440999999933e+05
2.435090542000000191e+00,2.529815701000000117e+05
2.435608149000000111e+00,2.523497477999999828e+05
2.436125754999999948e+00,2.517254136999999755e+05
2.436643361999999868e+00,2.511101988000000129e+05
2.437160968999999788e+00,2.505068559999999998e+05
2.437678336999999917e+00,2.499190647000000172e+05
2.438195943999999837e+00,2.493509827999999980e+05
2.438713551000000201e+00,2.488064567000000097e+05
2.439231157000000039e+00,2.482885023999999976e+05
2.439748763999999959e+00,2.477990097999999998e+05
2.440266370999999879e+00,2.473383961000000127e+05
2.440783977999999799e+00,2.469059723999999987e+05
2.441301345999999928e+00,2.464999548000000068e+05
2.441818952999999848e+00,2.461179248000000080e+05
2.442336559000000129e+00,2.457573955999999889e+05
2.442854166000000049e+00,2.454160130000000063e+05
2.443371772999999969e+00,2.450920308000000077e+05
2.443889379999999889e+00,2.447846152000000002e+05
2.444406748000000018e+00,2.444935510999999824e+05
2.444924354999999938e+00,2.442192020999999950e+05
2.445441961000000219e+00,2.439620673999999999e+05
2.445959568000000139e+00,2.437223823999999731e+05
2.446477175000000059e+00,2.434999130999999761e+05
2.446994780999999897e+00,2.432937185999999929e+05
2.447512150000000108e+00,2.431020751999999920e+05
2.448029757000000028e+00,2.429225005000000237e+05
2.448547362999999866e+00,2.427517623000000021e+05
2.449064969999999786e+00,2.425862700999999943e+05
2.449582577000000150e+00,2.424223459999999905e+05
2.450100182999999987e+00,2.422569456000000064e+05
2.450617552000000199e+00,2.420888404000000155e+05
2.451135159000000119e+00,2.419197760000000126e+05
2.451652764999999956e+00,2.417550088000000105e+05
2.452170371999999876e+00,2.416032864999999874e+05
2.452687978999999796e+00,2.414753047000000079e+05
2.453205585000000077e+00,2.413813775000000023e+05
2.453722953999999845e+00,2.413272133000000031e+05
2.454240561000000209e+00,2.413119526999999944e+05
2.454758167000000046e+00,2.413291772000000055e+05
2.455275773999999966e+00,2.413683782999999821e+05
2.455793380999999886e+00,2.414145560000000114e+05
2.456310987000000168e+00,2.414502180999999982e+05
2.456828594000000088e+00,2.414588913999999932e+05
2.457345962999999855e+00,2.414295286999999953e+05
2.457863569000000137e+00,2.413590445999999938e+05
2.458381176000000057e+00,2.412504592999999877e+05
2.458898782999999977e+00,2.411117595999999903e+05
2.459416388999999814e+00,2.409547235999999975e+05
2.459933996000000178e+00,2.407928215999999957e+05
2.460451364999999946e+00,2.406385062000000034e+05
2.460968970999999783e+00,2.405012413999999990e+05
2.461486578000000147e+00,2.403863814999999886e+05
2.462004185000000067e+00,2.402953478999999934e+05
2.462521790999999904e+00,2.402265787999999884e+05
2.463039397999999824e+00,2.401769630999999936e+05
2.463556767000000036e+00,2.401428745000000054e+05
2.464074372999999873e+00,2.401208847999999998e+05
2.464591979999999793e+00,2.401081205000000191e+05
2.465109587000000158e+00,2.401024137999999803e+05
2.465627192999999995e+00,2.401020920999999798e+05
2.466144799999999915e+00,2.401057235999999975e+05
2.466662169000000127e+00,2.401118509000000195e+05
2.467179774999999964e+00,2.401190095000000147e+05
2.467697381999999884e+00,2.401257062999999907e+05
2.468214988999999804e+00,2.401308591000000015e+05
2.468732595000000085e+00,2.401336780999999901e+05
2.469250202000000005e+00,2.401344164999999921e+05
2.469767808999999925e+00,2.401332969999999914e+05
2.470285177000000054e+00,2.401325290999999852e+05
2.470802783999999974e+00,2.401317991000000038e+05
2.471320390999999894e+00,2.401330475000000151e+05
2.471837997000000176e+00,2.401361185000000114e+05
2.472355604000000096e+00,2.401405703999999969e+05
2.472873211000000016e+00,2.401455511000000115e+05
2.473390579000000145e+00,2.401499467000000004e+05
2.473908186000000065e+00,2.401526839000000036e+05
2.474425792999999985e+00,2.401529471000000194e+05
2.474943398999999822e+00,2.401503877000000211e+05
2.475461006000000186e+00,2.401450543999999936e+05
2.475978613000000106e+00,2.401374691999999923e+05
2.476495980999999791e+00,2.401284738000000070e+05
2.477013588000000155e+00,2.401191252000000095e+05
2.477531195000000075e+00,2.401106520000000019e+05
2.478048800999999912e+00,2.401040566000000108e+05
2.478566407999999832e+00,2.401000989000000118e+05
2.479084015000000196e+00,2.400990103999999992e+05
2.479601382999999881e+00,2.401005929000000178e+05
