x(m),wallP(Pa)
2.250443934999999840e+00,1.534069304999999986e+04
2.251112460999999954e+00,1.534066028999999980e+04
2.251780987000000067e+00,1.534062478000000010e+04
2.252449512000000098e+00,1.534058556999999928e+04
2.253118038000000212e+00,1.534054098999999951e+04
2.253786563999999881e+00,1.534049538000000030e+04
2.254454851000000204e+00,1.534044702999999936e+04
2.255123376999999874e+00,1.534039688000000024e+04
2.255791902999999987e+00,1.534034582000000046e+04
2.256460428000000018e+00,1.534029214000000138e+04
2.257128954000000132e+00,1.534023930999999902e+04
2.257797241000000010e+00,1.534018464999999924e+04
2.258465767000000124e+00,1.534013187000000107e+04
2.259134292999999793e+00,1.534006912999999986e+04
2.259802817999999824e+00,1.534001087999999982e+04
2.260471343999999938e+00,1.533995636000000013e+04
2.261139630999999817e+00,1.533989726000000155e+04
2.261808156999999930e+00,1.533983912000000055e+04
2.262476683000000044e+00,1.533977103999999963e+04
2.263145208000000075e+00,1.533971112999999968e+04
2.263813734000000188e+00,1.533965769999999975e+04
2.264482259999999858e+00,1.533960429000000113e+04
2.265150547000000181e+00,1.533954909000000043e+04
2.265819072999999850e+00,1.533949312999999893e+04
2.266487597999999881e+00,1.533944166000000041e+04
2.267156123999999995e+00,1.533939205000000038e+04
2.267824650000000108e+00,1.533934246999999959e+04
2.268492936999999987e+00,1.533929306999999972e+04
2.269161463000000101e+00,1.533925180000000000e+04
2.269829988000000132e+00,1.533921422999999959e+04
2.270498513999999801e+00,1.533917942000000039e+04
2.271167039999999915e+00,1.533914556999999877e+04
2.271835566000000028e+00,1.533911275999999998e+04
2.272503852999999907e+00,1.533908260999999948e+04
2.273172379000000021e+00,1.533905430000000160e+04
2.273840904000000052e+00,1.533902782999999908e+04
2.274509430000000165e+00,1.533900242000000071e+04
2.275177955999999835e+00,1.533897782000000007e+04
2.275846243000000158e+00,1.533895414999999957e+04
2.276514768999999827e+00,1.533893141000000105e+04
2.277183293999999858e+00,1.533891047999999864e+04
2.277851819999999972e+00,1.533888424999999916e+04
2.278520346000000085e+00,1.533886153999999988e+04
2.279188871000000116e+00,1.533883519999999953e+04
2.279857159000000077e+00,1.533881068000000050e+04
2.280525684000000108e+00,1.533878449999999975e+04
2.281194210000000222e+00,1.533875091000000066e+04
2.281862735999999892e+00,1.533872098000000005e+04
2.282531260999999922e+00,1.533870381000000089e+04
2.283199548999999884e+00,1.533868304999999964e+04
2.283868073999999915e+00,1.533865873999999894e+04
2.284536600000000028e+00,1.533863436000000002e+04
2.285205126000000142e+00,1.533860267000000022e+04
2.285873651999999812e+00,1.533860015999999996e+04
2.286542176999999842e+00,1.533896349999999984e+04
2.287210464000000165e+00,1.534346111999999994e+04
2.287878989999999835e+00,1.537210736999999972e+04
2.288547515999999948e+00,1.567083796000000075e+04
2.289216042000000062e+00,1.936331678000000102e+04
2.289884567000000093e+00,2.637717194000000018e+04
2.290552855000000054e+00,3.165501090000000113e+04
2.291221380000000085e+00,3.502149835000000166e+04
2.291889906000000199e+00,3.732725639000000228e+04
2.292558431999999868e+00,3.904332257000000391e+04
2.293226956999999899e+00,4.037706699999999546e+04
2.293895244999999861e+00,4.146020242000000144e+04
2.294563769999999892e+00,4.236693884000000253e+04
2.295232296000000005e+00,4.316146310000000085e+04
2.295900822000000119e+00,4.387495474000000104e+04
2.296569347000000150e+00,4.452447148000000016e+04
2.297237872999999819e+00,4.512748641999999381e+04
2.297906160000000142e+00,4.568994840999999724e+04
2.298574685999999812e+00,4.622023647000000346e+04
2.299243211999999925e+00,4.672289183000000048e+04
2.299911736999999956e+00,4.720251996999999392e+04
2.300580263000000070e+00,4.766206667000000016e+04
2.301248549999999948e+00,4.810486996000000363e+04
2.301917076000000062e+00,4.853200233999999909e+04
2.302585602000000176e+00,4.894558842000000004e+04
2.303254127999999845e+00,4.934662494000000152e+04
2.303922652999999876e+00,4.973641991000000417e+04
2.304591178999999990e+00,5.011551407000000472e+04
2.305259465999999868e+00,5.048530141999999614e+04
2.305927991999999982e+00,5.084582992999999988e+04
2.306596518000000096e+00,5.119836884999999893e+04
2.307265043000000126e+00,5.154267618000000220e+04
2.307933568999999796e+00,5.187954177999999956e+04
2.308601856000000119e+00,5.220894839000000502e+04
2.309270381999999788e+00,5.253167079999999987e+04
2.309938907999999902e+00,5.284750731999999698e+04
2.310607432999999933e+00,5.315714835999999923e+04
2.311275959000000046e+00,5.346061525999999867e+04
2.311944485000000160e+00,5.375784201000000030e+04
2.312612772000000039e+00,5.404933946999999898e+04
2.313281298000000152e+00,5.433508011999999871e+04
2.313949823000000183e+00,5.461532802000000083e+04
2.314618348999999853e+00,5.489026176000000123e+04
2.315286874999999966e+00,5.516012080000000424e+04
2.315955161999999845e+00,5.542511194000000251e+04
2.316623687999999959e+00,5.568545509999999922e+04
2.317292212999999990e+00,5.594138165999999910e+04
2.317960739000000103e+00,5.619310870000000432e+04
2.318629265000000217e+00,5.644084924999999930e+04
2.319297552000000096e+00,5.668479329000000143e+04
2.319966078000000209e+00,5.692513072000000102e+04
2.320634603999999879e+00,5.716201991999999882e+04
2.321303128999999910e+00,5.739561238999999478e+04
2.321971655000000023e+00,5.762601965999999811e+04
2.322640181000000137e+00,5.785332686999999714e+04
2.323308468000000016e+00,5.807757603000000381e+04
2.323976994000000129e+00,5.829877070999999705e+04
2.324645519000000160e+00,5.851689031000000250e+04
2.325314044999999830e+00,5.873184528000000137e+04
2.325982570999999943e+00,5.894352022999999463e+04
2.326650857999999822e+00,5.915174347999999736e+04
2.327319383999999935e+00,5.935632329999999638e+04
2.327987908999999966e+00,5.955700259999999980e+04
2.328656435000000080e+00,5.975349159000000509e+04
2.329324961000000194e+00,5.994547948000000179e+04
2.329993485999999780e+00,6.013263844000000245e+04
2.330661774000000186e+00,6.031463554999999906e+04
2.331330299000000217e+00,6.049112973999999667e+04
2.331998824999999886e+00,6.066180430000000342e+04
2.332667351000000000e+00,6.082640810000000056e+04
2.333335876000000031e+00,6.098420292999999947e+04
2.334004163999999992e+00,6.113574465999999666e+04
2.334672689000000023e+00,6.128007577000000310e+04
2.335341215000000137e+00,6.141749487000000227e+04
2.336009740999999806e+00,6.154791582999999810e+04
2.336678266999999920e+00,6.167155010999999649e+04
2.337346791999999951e+00,6.178873889999999665e+04
2.338015078999999830e+00,6.190003595999999379e+04
2.338683604999999943e+00,6.200622271999999793e+04
2.339352131000000057e+00,6.210859080000000540e+04
2.340020657000000170e+00,6.220865933000000223e+04
2.340689182000000201e+00,6.230847161000000051e+04
2.341357470000000163e+00,6.241069417999999860e+04
2.342025995000000194e+00,6.251842477999999392e+04
2.342694520999999863e+00,6.263546673000000010e+04
2.343363046999999977e+00,6.276641646000000037e+04
2.344031572000000008e+00,6.291620499999999447e+04
2.344700098000000121e+00,6.309077360000000044e+04
2.345368385000000000e+00,6.329547473000000173e+04
2.346036911000000114e+00,6.353831524000000354e+04
2.346705436999999783e+00,6.381884397999999783e+04
2.347373961999999814e+00,6.424882433999999921e+04
2.348042487999999928e+00,6.474283312999999180e+04
2.348710774999999806e+00,6.527241990999999689e+04
2.349379300999999920e+00,6.595455474999999569e+04
2.350047827000000034e+00,6.675646381000000110e+04
2.350716352000000064e+00,6.773736508000000322e+04
2.351384878000000178e+00,6.890256436000000394e+04
2.352053165000000057e+00,7.021026445000000240e+04
2.352721691000000170e+00,7.392552296000000206e+04
2.353314876999999861e+00,6.749873131000000285e+04
2.353832244999999990e+00,6.859012602999999945e+04
2.354349851999999910e+00,6.749828835000000254e+04
2.354867458000000191e+00,6.668262208000000101e+04
2.355385065000000111e+00,6.627050142999998934e+04
2.355902672000000031e+00,6.613477674000000115e+04
2.356420278999999951e+00,6.626879982000000018e+04
2.356937647000000080e+00,6.653983134999999311e+04
2.357455254000000000e+00,6.695365425999999570e+04
2.357972859999999837e+00,6.745862639000000490e+04
2.358490467000000201e+00,6.807670509999999194e+04
2.359008074000000121e+00,6.871064880999999878e+04
2.359525681000000041e+00,6.941467650000000140e+04
2.360043286999999879e+00,7.017321176000000560e+04
2.360560656000000090e+00,7.098256496000000334e+04
2.361078261999999928e+00,7.183503315000000293e+04
2.361595868999999848e+00,7.272781272000000172e+04
2.362113476000000212e+00,7.365828247999999439e+04
2.362631083000000132e+00,7.462514820999999938e+04
2.363148688999999969e+00,7.562734668999999121e+04
2.363666058000000181e+00,7.666428538000000117e+04
2.364183664000000018e+00,7.773561667000000307e+04
2.364701270999999938e+00,7.884123692999999912e+04
2.365218877999999858e+00,7.998117868999998609e+04
2.365736484999999778e+00,8.115559649999999965e+04
2.366254091000000059e+00,8.236471342999998888e+04
2.366771459999999827e+00,8.360871998999999778e+04
2.367289066000000108e+00,8.488774666999999317e+04
2.367806673000000028e+00,8.620190859000000637e+04
2.368324279999999948e+00,8.755123600000000442e+04
2.368841886999999868e+00,8.893567079999999260e+04
2.369359493000000150e+00,9.035505834000000323e+04
2.369876861999999917e+00,9.180911287000001175e+04
2.370394468000000199e+00,9.329742948000000615e+04
2.370912075000000119e+00,9.481956460000001243e+04
2.371429682000000039e+00,9.637499042999999074e+04
2.371947288999999959e+00,9.796315493999999308e+04
2.372464894999999796e+00,9.958338120999999228e+04
2.372982502000000160e+00,1.012351201999999903e+05
2.373499869999999845e+00,1.029176930999999895e+05
2.374017477000000209e+00,1.046307008000000060e+05
2.374535084000000129e+00,1.063739642999999924e+05
2.375052691000000049e+00,1.081468404999999912e+05
2.375570296999999886e+00,1.099489473999999900e+05
2.376087903999999806e+00,1.117803057999999874e+05
2.376605271999999935e+00,1.136411928000000044e+05
2.377122878999999855e+00,1.155320963999999949e+05
2.377640486000000219e+00,1.174535639999999985e+05
2.378158092000000057e+00,1.194063145999999979e+05
2.378675698999999977e+00,1.213909896000000008e+05
2.379193305999999897e+00,1.234082880000000005e+05
2.379710674000000026e+00,1.254588323999999993e+05
2.380228280999999946e+00,1.275427652999999991e+05
2.380745887999999866e+00,1.296600583999999944e+05
2.381263494000000147e+00,1.318103471999999892e+05
2.381781101000000067e+00,1.339930543000000180e+05
2.382298707999999987e+00,1.362072199000000255e+05
2.382816076000000116e+00,1.384516201000000001e+05
2.383333683000000036e+00,1.407244894000000204e+05
2.383851289999999956e+00,1.430247510000000184e+05
2.384368895999999793e+00,1.453506432000000204e+05
2.384886503000000157e+00,1.476988746000000101e+05
2.385404110000000077e+00,1.500692295000000158e+05
2.385921716999999997e+00,1.524593484999999928e+05
2.386439085000000127e+00,1.548656618000000017e+05
2.386956692000000047e+00,1.572866720999999961e+05
2.387474297999999884e+00,1.597205029000000213e+05
2.387991904999999804e+00,1.621650081000000064e+05
2.388509512000000168e+00,1.646189977000000072e+05
2.389027119000000088e+00,1.670816781000000192e+05
2.389544487000000217e+00,1.695525330000000249e+05
2.390062094000000137e+00,1.720329281999999948e+05
2.390579699999999974e+00,1.745237595000000147e+05
2.391097306999999894e+00,1.770259762000000046e+05
2.391614913999999814e+00,1.795418397000000114e+05
2.392132521000000178e+00,1.820728215999999957e+05
2.392649888999999863e+00,1.846223555999999808e+05
2.393167495999999783e+00,1.871917478999999876e+05
2.393685102000000064e+00,1.897810598000000173e+05
2.394202708999999984e+00,1.923905571000000054e+05
2.394720315999999904e+00,1.950179156000000075e+05
2.395237922999999824e+00,1.976592903000000224e+05
2.395755290999999954e+00,2.003091941000000224e+05
2.396272897999999874e+00,2.029606938000000082e+05
2.396790504000000155e+00,2.056055628999999899e+05
2.397308111000000075e+00,2.082347958999999973e+05
2.397825717999999995e+00,2.108390952000000107e+05
2.398343324999999915e+00,2.134095982000000076e+05
2.398860693000000044e+00,2.159385509000000020e+05
2.399378299999999964e+00,2.184200677999999898e+05
2.399895905999999801e+00,2.208510630000000237e+05
2.400413513000000165e+00,2.232318208000000159e+05
2.400931120000000085e+00,2.255668427000000083e+05
2.401448727000000005e+00,2.278651489000000001e+05
2.401966332999999842e+00,2.301402644999999902e+05
2.402483702000000054e+00,2.324089035000000149e+05
2.403001307999999892e+00,2.346891768000000156e+05
2.403518914999999811e+00,2.369979648000000161e+05
2.404036522000000176e+00,2.393457459999999846e+05
2.404554129000000096e+00,2.417348336999999883e+05
2.405071734999999933e+00,2.441556577999999863e+05
2.405589104000000145e+00,2.465912841999999946e+05
2.406106709999999982e+00,2.490089102999999886e+05
2.406624316999999902e+00,2.513675878999999841e+05
2.407141923999999822e+00,2.536308263999999908e+05
2.407659531000000186e+00,2.557606686000000045e+05
2.408177137000000023e+00,2.577323868999999831e+05
2.408694505999999791e+00,2.595349269999999960e+05
2.409212112000000072e+00,2.611781356000000087e+05
2.409729718999999992e+00,2.626982704999999842e+05
2.410247325999999912e+00,2.641541321000000462e+05
2.410764932999999832e+00,2.656204641999999876e+05
2.411282539000000114e+00,2.671728704000000143e+05
2.411799907999999881e+00,2.688717750000000233e+05
2.412317514000000163e+00,2.707495941999999923e+05
2.412835121000000083e+00,2.727989826999999932e+05
2.413352728000000003e+00,2.749654300999999978e+05
2.413870334999999923e+00,2.771504410999999964e+05
2.414387941000000204e+00,2.792301454000000376e+05
2.414905548000000124e+00,2.810833163000000059e+05
2.415422915999999809e+00,2.826260202999999747e+05
2.415940523000000173e+00,2.838383989000000292e+05
2.416458130000000093e+00,2.847853033999999752e+05
2.416975737000000013e+00,2.856077588000000105e+05
2.417493342999999850e+00,2.864708750000000000e+05
2.418010950000000214e+00,2.875031799999999930e+05
2.418528317999999899e+00,2.887767585000000545e+05
2.419045924999999819e+00,2.902340558999999776e+05
2.419563532000000183e+00,2.918053591000000015e+05
2.420081139000000103e+00,2.931017633999999962e+05
2.420598744999999941e+00,2.942725046999999904e+05
2.421116351999999861e+00,2.945967865999999922e+05
2.421633719999999990e+00,2.945947873000000254e+05
2.422151326999999910e+00,2.940161291000000201e+05
2.422668933999999830e+00,2.930989243999999599e+05
2.423186541000000194e+00,2.918564421999999904e+05
2.423704147000000031e+00,2.904014470999999903e+05
2.424221753999999951e+00,2.888029270999999717e+05
2.424739122000000080e+00,2.871013878000000259e+05
2.425256729000000000e+00,2.853219386999999988e+05
2.425774335999999920e+00,2.834912140000000363e+05
2.426291942999999840e+00,2.816362763000000268e+05
2.426809549000000121e+00,2.798192570999999880e+05
2.427327156000000041e+00,2.780601146999999764e+05
2.427844762999999961e+00,2.764679401000000071e+05
2.428362131000000090e+00,2.749882000000000116e+05
2.428879738000000010e+00,2.737613825000000070e+05
2.429397344999999930e+00,2.726493229999999749e+05
2.429914951000000212e+00,2.716451596000000136e+05
2.430432558000000132e+00,2.707131762999999919e+05
2.430950165000000052e+00,2.698537071999999462e+05
2.431467533000000181e+00,2.690323447000000160e+05
2.431985140000000101e+00,2.682456592999999993e+05
2.432502747000000021e+00,2.674903709000000381e+05
2.433020352999999858e+00,2.667573545999999624e+05
2.433537960000000222e+00,2.660354085000000196e+05
2.434055567000000142e+00,2.653157739000000292e+05
2.434572934999999827e+00,2.645943925000000163e+05
2.435090542000000191e+00,2.638720804999999818e+05
2.435608149000000111e+00,2.631525224000000162e+05
2.436125754999999948e+00,2.624385746999999974e+05
2.436643361999999868e+00,2.617304103000000177e+05
2.437160968999999788e+00,2.610252927999999956e+05
2.437678336999999917e+00,2.603188036000000138e+05
2.438195943999999837e+00,2.596068429000000178e+05
2.438713551000000201e+00,2.588865885000000126e+05
2.439231157000000039e+00,2.581575867999999900e+05
2.439748763999999959e+00,2.574220584000000381e+05
2.440266370999999879e+00,2.566845679999999993e+05
2.440783977999999799e+00,2.559510629999999946e+05
2.441301345999999928e+00,2.552270358000000124e+05
2.441818952999999848e+00,2.545162163000000000e+05
2.442336559000000129e+00,2.538204440999999933e+05
2.442854166000000049e+00,2.531400123000000021e+05
2.443371772999999969e+00,2.524752583999999915e+05
2.443889379999999889e+00,2.518276631000000052e+05
2.444406748000000018e+00,2.512000705000000016e+05
2.444924354999999938e+00,2.505966095999999961e+05
2.445441961000000219e+00,2.500215593999999983e+05
2.445959568000000139e+00,2.494780754999999772e+05
2.446477175000000059e+00,2.489668612000000139e+05
2.446994780999999897e+00,2.484851171999999788e+05
2.447512150000000108e+00,2.480264216000000015e+05
2.448029757000000028e+00,2.475813530000000028e+05
2.448547362999999866e+00,2.471388804999999993e+05
2.449064969999999786e+00,2.466884455000000016e+05
2.449582577000000150e+00,2.462223348000000115e+05
2.450100182999999987e+00,2.457380434999999998e+05
2.450617552000000199e+00,2.452413532999999879e+05
2.451135159000000119e+00,2.447489587000000174e+05
2.451652764999999956e+00,2.442883205000000016e+05
2.452170371999999876e+00,2.438975254000000132e+05
2.452687978999999796e+00,2.435973404999999912e+05
2.453205585000000077e+00,2.434457821000000113e+05
2.453722953999999845e+00,2.434142725000000210e+05
2.454240561000000209e+00,2.434703825999999826e+05
2.454758167000000046e+00,2.436014468000000052e+05
2.455275773999999966e+00,2.437834707000000053e+05
2.455793380999999886e+00,2.439752041000000027e+05
2.456310987000000168e+00,2.441348134000000136e+05
2.456828594000000088e+00,2.442102480999999971e+05
2.457345962999999855e+00,2.441728581000000122e+05
2.457863569000000137e+00,2.440364390000000130e+05
2.458381176000000057e+00,2.438064330999999947e+05
2.458898782999999977e+00,2.434975681000000041e+05
2.459416388999999814e+00,2.431356345999999903e+05
2.459933996000000178e+00,2.427518773999999976e+05
2.460451364999999946e+00,2.423750872000000090e+05
2.460968970999999783e+00,2.420268225000000093e+05
2.461486578000000147e+00,2.417197074999999895e+05
2.462004185000000067e+00,2.414581552999999840e+05
2.462521790999999904e+00,2.412401814000000013e+05
2.463039397999999824e+00,2.410598684999999823e+05
2.463556767000000036e+00,2.409092505999999994e+05
2.464074372999999873e+00,2.407803871000000217e+05
2.464591979999999793e+00,2.406663529999999737e+05
2.465109587000000158e+00,2.405621050999999861e+05
2.465627192999999995e+00,2.404644844000000157e+05
2.466144799999999915e+00,2.403719631999999983e+05
2.466662169000000127e+00,2.402841223999999929e+05
2.467179774999999964e+00,2.402010485000000044e+05
2.467697381999999884e+00,2.401226631000000052e+05
2.468214988999999804e+00,2.400485788999999932e+05
2.468732595000000085e+00,2.399776977999999945e+05
2.469250202000000005e+00,2.399090341000000190e+05
2.469767808999999925e+00,2.398411647999999986e+05
2.470285177000000054e+00,2.397746330000000016e+05
2.470802783999999974e+00,2.397081686999999802e+05
2.471320390999999894e+00,2.396440222999999824e+05
2.471837997000000176e+00,2.395829017999999924e+05
2.472355604000000096e+00,2.395265033000000112e+05
2.472873211000000016e+00,2.394761293000000005e+05
2.473390579000000145e+00,2.394327869999999821e+05
2.473908186000000065e+00,2.393969293000000180e+05
2.474425792999999985e+00,2.393685640999999887e+05
2.474943398999999822e+00,2.393473068999999959e+05
2.475461006000000186e+00,2.393323981999999960e+05
2.475978613000000106e+00,2.393227014999999956e+05
2.476495980999999791e+00,2.393166854000000167e+05
2.477013588000000155e+00,2.393126130000000121e+05
2.477531195000000075e+00,2.393086010000000242e+05
2.478048800999999912e+00,2.393030506000000169e+05
2.478566407999999832e+00,2.392949694000000018e+05
2.479084015000000196e+00,2.392842369999999937e+05
2.479601382999999881e+00,2.392717594000000099e+05
