x(m),wallP(Pa)
2.250443934999999840e+00,1.532142564999999922e+04
2.251112460999999954e+00,1.532146237999999903e+04
2.251780987000000067e+00,1.532148431999999957e+04
2.252449512000000098e+00,1.532150715999999920e+04
2.253118038000000212e+00,1.532152920000000086e+04
2.253786563999999881e+00,1.532155111000000034e+04
2.254454851000000204e+00,1.532157296999999926e+04
2.255123376999999874e+00,1.532159209000000010e+04
2.255791902999999987e+00,1.532161023999999998e+04
2.256460428000000018e+00,1.532162393999999949e+04
2.257128954000000132e+00,1.532163838000000032e+04
2.257797241000000010e+00,1.532165191000000050e+04
2.258465767000000124e+00,1.532166727999999966e+04
2.259134292999999793e+00,1.532168092000000070e+04
2.259802817999999824e+00,1.532169533000000047e+04
2.260471343999999938e+00,1.532170791999999892e+04
2.261139630999999817e+00,1.532172231999999894e+04
2.261808156999999930e+00,1.532173674000000028e+04
2.262476683000000044e+00,1.532175218000000132e+04
2.263145208000000075e+00,1.532176931999999942e+04
2.263813734000000188e+00,1.532178552000000127e+04
2.264482259999999858e+00,1.532180448000000069e+04
2.265150547000000181e+00,1.532182985000000008e+04
2.265819072999999850e+00,1.532185627000000022e+04
2.266487597999999881e+00,1.532188162999999986e+04
2.267156123999999995e+00,1.532190787999999884e+04
2.267824650000000108e+00,1.532193870000000061e+04
2.268492936999999987e+00,1.532197146000000066e+04
2.269161463000000101e+00,1.532201049999999850e+04
2.269829988000000132e+00,1.532205227999999988e+04
2.270498513999999801e+00,1.532209768000000076e+04
2.271167039999999915e+00,1.532214307999999983e+04
2.271835566000000028e+00,1.532219130999999834e+04
2.272503852999999907e+00,1.532224762000000010e+04
2.273172379000000021e+00,1.532230574999999953e+04
2.273840904000000052e+00,1.532236748999999872e+04
2.274509430000000165e+00,1.532243206000000100e+04
2.275177955999999835e+00,1.532250104999999894e+04
2.275846243000000158e+00,1.532257366000000002e+04
2.276514768999999827e+00,1.532265079000000151e+04
2.277183293999999858e+00,1.532273243999999977e+04
2.277851819999999972e+00,1.532281602000000021e+04
2.278520346000000085e+00,1.532289665000000059e+04
2.279188871000000116e+00,1.532298821999999927e+04
2.279857159000000077e+00,1.532309249999999884e+04
2.280525684000000108e+00,1.532319318000000021e+04
2.281194210000000222e+00,1.532328642000000036e+04
2.281862735999999892e+00,1.532338868000000002e+04
2.282531260999999922e+00,1.532350182999999925e+04
2.283199548999999884e+00,1.532361309999999867e+04
2.283868073999999915e+00,1.532372443000000021e+04
2.284536600000000028e+00,1.532384103999999934e+04
2.285205126000000142e+00,1.532396120999999948e+04
2.285873651999999812e+00,1.532408316000000013e+04
2.286542176999999842e+00,1.532420680999999968e+04
2.287210464000000165e+00,1.532432511999999952e+04
2.287878989999999835e+00,1.532446136999999908e+04
2.288547515999999948e+00,1.532459938999999940e+04
2.289216042000000062e+00,1.532473004000000037e+04
2.289884567000000093e+00,1.532485894000000008e+04
2.290552855000000054e+00,1.532499669999999969e+04
2.291221380000000085e+00,1.532513802000000032e+04
2.291889906000000199e+00,1.532528108000000066e+04
2.292558431999999868e+00,1.532542587000000094e+04
2.293226956999999899e+00,1.532556890000000021e+04
2.293895244999999861e+00,1.532571712999999909e+04
2.294563769999999892e+00,1.532586891999999898e+04
2.295232296000000005e+00,1.532602065000000039e+04
2.295900822000000119e+00,1.532617238999999972e+04
2.296569347000000150e+00,1.532632754999999997e+04
2.297237872999999819e+00,1.532648621999999887e+04
2.297906160000000142e+00,1.532664663000000110e+04
2.298574685999999812e+00,1.532681055000000015e+04
2.299243211999999925e+00,1.532697451999999976e+04
2.299911736999999956e+00,1.532714368000000104e+04
2.300580263000000070e+00,1.532731455999999889e+04
2.301248549999999948e+00,1.532748896000000059e+04
2.301917076000000062e+00,1.532766338999999971e+04
2.302585602000000176e+00,1.532784302000000025e+04
2.303254127999999845e+00,1.532802613999999994e+04
2.303922652999999876e+00,1.532821097999999984e+04
2.304591178999999990e+00,1.532839931000000070e+04
2.305259465999999868e+00,1.532858945000000131e+04
2.305927991999999982e+00,1.532878297999999995e+04
2.306596518000000096e+00,1.532897821999999906e+04
2.307265043000000126e+00,1.532917873000000145e+04
2.307933568999999796e+00,1.532938094999999885e+04
2.308601856000000119e+00,1.532958675000000039e+04
2.309270381999999788e+00,1.532979593999999997e+04
2.309938907999999902e+00,1.533000859999999921e+04
2.310607432999999933e+00,1.533022474999999940e+04
2.311275959000000046e+00,1.533044448999999986e+04
2.311944485000000160e+00,1.533066939000000093e+04
2.312612772000000039e+00,1.533089776999999958e+04
2.313281298000000152e+00,1.533112958000000071e+04
2.313949823000000183e+00,1.533136306999999942e+04
2.314618348999999853e+00,1.533160196999999971e+04
2.315286874999999966e+00,1.533184958000000006e+04
2.315955161999999845e+00,1.533209880999999950e+04
2.316623687999999959e+00,1.533234973999999966e+04
2.317292212999999990e+00,1.533260601999999926e+04
2.317960739000000103e+00,1.533287100000000100e+04
2.318629265000000217e+00,1.533314121000000159e+04
2.319297552000000096e+00,1.533341665999999896e+04
2.319966078000000209e+00,1.533367939999999908e+04
2.320634603999999879e+00,1.533392956000000049e+04
2.321303128999999910e+00,1.533415251999999964e+04
2.321971655000000023e+00,1.533466755999999987e+04
2.322640181000000137e+00,1.533963527000000067e+04
2.323308468000000016e+00,1.536270432000000073e+04
2.323976994000000129e+00,1.556539278000000013e+04
2.324645519000000160e+00,1.789111400000000140e+04
2.325314044999999830e+00,2.778181367999999929e+04
2.325982570999999943e+00,3.754666157999999996e+04
2.326650857999999822e+00,4.358226170999999886e+04
2.327319383999999935e+00,4.684216451000000234e+04
2.327987908999999966e+00,4.894545678000000044e+04
2.328656435000000080e+00,5.041455223999999725e+04
2.329324961000000194e+00,5.152720175000000017e+04
2.329993485999999780e+00,5.243617359999999462e+04
2.330661774000000186e+00,5.320392811000000074e+04
2.331330299000000217e+00,5.388687771000000066e+04
2.331998824999999886e+00,5.448351411000000371e+04
2.332667351000000000e+00,5.503853306000000157e+04
2.333335876000000031e+00,5.552853312000000005e+04
2.334004163999999992e+00,5.599224242999999842e+04
2.334672689000000023e+00,5.640643708999999944e+04
2.335341215000000137e+00,5.679686956999999529e+04
2.336009740999999806e+00,5.714962127999999939e+04
2.336678266999999920e+00,5.747925705000000016e+04
2.337346791999999951e+00,5.777846487999999954e+04
2.338015078999999830e+00,5.805502529000000504e+04
2.338683604999999943e+00,5.830534579999999551e+04
2.339352131000000057e+00,5.853357138999999734e+04
2.340020657000000170e+00,5.873775450999999885e+04
2.340689182000000201e+00,5.891977578000000358e+04
2.341357470000000163e+00,5.907862313999999606e+04
2.342025995000000194e+00,5.921453753000000142e+04
2.342694520999999863e+00,5.932659900000000198e+04
2.343363046999999977e+00,5.941357847000000038e+04
2.344031572000000008e+00,5.947385311000000365e+04
2.344700098000000121e+00,5.950757704000000376e+04
2.345368385000000000e+00,5.951589176000000589e+04
2.346036911000000114e+00,5.949886366999999882e+04
2.346705436999999783e+00,5.945959409999999480e+04
2.347373961999999814e+00,5.941401348000000144e+04
2.348042487999999928e+00,5.938461460999999690e+04
2.348710774999999806e+00,5.939418516000000091e+04
2.349379300999999920e+00,5.948641802000000462e+04
2.350047827000000034e+00,5.974411695999999938e+04
2.350716352000000064e+00,6.061766332999999577e+04
2.351384878000000178e+00,6.257221603000000323e+04
2.352053165000000057e+00,6.547377602000000479e+04
2.352721691000000170e+00,7.254245539000000281e+04
2.353314876999999861e+00,6.437951812000000064e+04
2.353832244999999990e+00,6.491277309000000241e+04
2.354349851999999910e+00,6.322856044000000111e+04
2.354867458000000191e+00,6.311731396999999561e+04
2.355385065000000111e+00,6.392743980000000010e+04
2.355902672000000031e+00,6.506292938000000140e+04
2.356420278999999951e+00,6.649485029999999097e+04
2.356937647000000080e+00,6.815112159999999858e+04
2.357455254000000000e+00,7.000967527999999584e+04
2.357972859999999837e+00,7.199703422000000137e+04
2.358490467000000201e+00,7.410465369000000646e+04
2.359008074000000121e+00,7.631720038999999815e+04
2.359525681000000041e+00,7.862715140999999130e+04
2.360043286999999879e+00,8.102768464999999560e+04
2.360560656000000090e+00,8.351464900000000489e+04
2.361078261999999928e+00,8.608514044999999169e+04
2.361595868999999848e+00,8.873691606000000320e+04
2.362113476000000212e+00,9.146772019999999611e+04
2.362631083000000132e+00,9.427570955999998841e+04
2.363148688999999969e+00,9.715913784999999916e+04
2.363666058000000181e+00,1.001163111000000063e+05
2.364183664000000018e+00,1.031452448000000004e+05
2.364701270999999938e+00,1.062441646000000037e+05
2.365218877999999858e+00,1.094112343000000110e+05
2.365736484999999778e+00,1.126446447000000044e+05
2.366254091000000059e+00,1.159422739000000001e+05
2.366771459999999827e+00,1.193017997999999934e+05
2.367289066000000108e+00,1.227209541000000027e+05
2.367806673000000028e+00,1.261974627000000037e+05
2.368324279999999948e+00,1.297288173000000097e+05
2.368841886999999868e+00,1.333120147999999754e+05
2.369359493000000150e+00,1.369439041999999899e+05
2.369876861999999917e+00,1.406207301000000152e+05
2.370394468000000199e+00,1.443385896000000066e+05
2.370912075000000119e+00,1.480934843000000110e+05
2.371429682000000039e+00,1.518808797999999952e+05
2.371947288999999959e+00,1.556962221000000136e+05
2.372464894999999796e+00,1.595348065999999817e+05
2.372982502000000160e+00,1.633919749000000011e+05
2.373499869999999845e+00,1.672630200000000186e+05
2.374017477000000209e+00,1.711433477999999886e+05
2.374535084000000129e+00,1.750283225000000093e+05
2.375052691000000049e+00,1.789133319999999949e+05
2.375570296999999886e+00,1.827938086000000185e+05
2.376087903999999806e+00,1.866652888000000094e+05
2.376605271999999935e+00,1.905233440000000119e+05
2.377122878999999855e+00,1.943635707999999868e+05
2.377640486000000219e+00,1.981814227000000246e+05
2.378158092000000057e+00,2.019724075000000012e+05
2.378675698999999977e+00,2.057325286999999953e+05
2.379193305999999897e+00,2.094563411999999953e+05
2.379710674000000026e+00,2.131385586999999941e+05
2.380228280999999946e+00,2.167733794000000053e+05
2.380745887999999866e+00,2.203543038999999990e+05
2.381263494000000147e+00,2.238740764999999956e+05
2.381781101000000067e+00,2.273233251000000164e+05
2.382298707999999987e+00,2.306910453000000271e+05
2.382816076000000116e+00,2.339640947999999917e+05
2.383333683000000036e+00,2.371269299999999930e+05
2.383851289999999956e+00,2.401635976000000082e+05
2.384368895999999793e+00,2.430561838000000280e+05
2.384886503000000157e+00,2.457911056000000099e+05
2.385404110000000077e+00,2.483512627999999968e+05
2.385921716999999997e+00,2.507180743000000075e+05
2.386439085000000127e+00,2.528694886000000115e+05
2.386956692000000047e+00,2.547713491999999969e+05
2.387474297999999884e+00,2.563807080000000133e+05
2.387991904999999804e+00,2.576563019999999960e+05
2.388509512000000168e+00,2.585652987999999896e+05
2.389027119000000088e+00,2.591188267000000051e+05
2.389544487000000217e+00,2.593466781000000192e+05
2.390062094000000137e+00,2.593332434000000067e+05
2.390579699999999974e+00,2.592097203000000154e+05
2.391097306999999894e+00,2.590515796000000264e+05
2.391614913999999814e+00,2.589173807999999844e+05
2.392132521000000178e+00,2.588292587000000349e+05
2.392649888999999863e+00,2.587663878999999724e+05
2.393167495999999783e+00,2.586799977000000072e+05
2.393685102000000064e+00,2.585279004999999888e+05
2.394202708999999984e+00,2.582974228000000003e+05
2.394720315999999904e+00,2.579973583999999973e+05
2.395237922999999824e+00,2.576524678000000131e+05
2.395755290999999954e+00,2.572940547000000079e+05
2.396272897999999874e+00,2.569483829999999725e+05
2.396790504000000155e+00,2.566290205999999889e+05
2.397308111000000075e+00,2.563368507000000100e+05
2.397825717999999995e+00,2.560649806000000099e+05
2.398343324999999915e+00,2.558036904999999970e+05
2.398860693000000044e+00,2.555428405000000203e+05
2.399378299999999964e+00,2.552722808000000077e+05
2.399895905999999801e+00,2.549821767999999865e+05
2.400413513000000165e+00,2.546646082999999926e+05
2.400931120000000085e+00,2.543161780000000144e+05
2.401448727000000005e+00,2.539401272000000172e+05
2.401966332999999842e+00,2.535466019000000088e+05
2.402483702000000054e+00,2.531501375000000116e+05
2.403001307999999892e+00,2.527637613999999885e+05
2.403518914999999811e+00,2.523926108999999997e+05
2.404036522000000176e+00,2.520321996000000217e+05
2.404554129000000096e+00,2.516718323000000091e+05
2.405071734999999933e+00,2.513004521999999997e+05
2.405589104000000145e+00,2.509113481999999785e+05
2.406106709999999982e+00,2.505050045000000100e+05
2.406624316999999902e+00,2.500893516999999993e+05
2.407141923999999822e+00,2.496775871000000043e+05
2.407659531000000186e+00,2.492841986999999790e+05
2.408177137000000023e+00,2.489213964999999735e+05
2.408694505999999791e+00,2.485964813999999897e+05
2.409212112000000072e+00,2.483107774999999965e+05
2.409729718999999992e+00,2.480600262000000221e+05
2.410247325999999912e+00,2.478361815000000061e+05
2.410764932999999832e+00,2.476299597999999824e+05
2.411282539000000114e+00,2.474330100999999850e+05
2.411799907999999881e+00,2.472391733999999997e+05
2.412317514000000163e+00,2.470449266999999818e+05
2.412835121000000083e+00,2.468492313000000140e+05
2.413352728000000003e+00,2.466530610000000161e+05
2.413870334999999923e+00,2.464584312999999966e+05
2.414387941000000204e+00,2.462675907000000007e+05
2.414905548000000124e+00,2.460823671999999788e+05
2.415422915999999809e+00,2.459039038000000000e+05
2.415940523000000173e+00,2.457327448999999906e+05
2.416458130000000093e+00,2.455690065999999933e+05
2.416975737000000013e+00,2.454124745999999868e+05
2.417493342999999850e+00,2.452627467999999935e+05
2.418010950000000214e+00,2.451193691000000108e+05
2.418528317999999899e+00,2.449820250999999989e+05
2.419045924999999819e+00,2.448505429000000004e+05
2.419563532000000183e+00,2.447248693999999959e+05
2.420081139000000103e+00,2.446051931000000041e+05
2.420598744999999941e+00,2.444916854999999923e+05
2.421116351999999861e+00,2.443845388999999850e+05
2.421633719999999990e+00,2.442839702000000107e+05
2.422151326999999910e+00,2.441901204000000143e+05
2.422668933999999830e+00,2.441030628000000142e+05
2.423186541000000194e+00,2.440226245000000054e+05
2.423704147000000031e+00,2.439484249999999884e+05
2.424221753999999951e+00,2.438798154000000213e+05
2.424739122000000080e+00,2.438159348000000173e+05
2.425256729000000000e+00,2.437557232000000076e+05
2.425774335999999920e+00,2.436984017000000167e+05
2.426291942999999840e+00,2.436425916999999899e+05
2.426809549000000121e+00,2.435890604999999923e+05
2.427327156000000041e+00,2.435343660000000091e+05
2.427844762999999961e+00,2.434861857000000018e+05
2.428362131000000090e+00,2.434295914000000048e+05
2.428879738000000010e+00,2.434066561999999976e+05
2.429397344999999930e+00,2.432966303999999946e+05
2.429914951000000212e+00,2.432968920999999973e+05
2.430432558000000132e+00,2.432567593000000052e+05
2.430950165000000052e+00,2.432329637999999977e+05
2.431467533000000181e+00,2.432100941999999923e+05
2.431985140000000101e+00,2.431822007999999914e+05
2.432502747000000021e+00,2.431509265999999770e+05
2.433020352999999858e+00,2.431189457000000111e+05
2.433537960000000222e+00,2.430875696999999927e+05
2.434055567000000142e+00,2.430569749000000011e+05
2.434572934999999827e+00,2.430267038999999932e+05
2.435090542000000191e+00,2.429969002000000037e+05
2.435608149000000111e+00,2.429676259000000136e+05
2.436125754999999948e+00,2.429380295999999798e+05
2.436643361999999868e+00,2.429064169000000111e+05
2.437160968999999788e+00,2.428700868999999948e+05
2.437678336999999917e+00,2.428263104000000167e+05
2.438195943999999837e+00,2.427734806999999855e+05
2.438713551000000201e+00,2.427120054999999993e+05
2.439231157000000039e+00,2.426449279999999853e+05
2.439748763999999959e+00,2.425769643999999971e+05
2.440266370999999879e+00,2.425131638999999850e+05
2.440783977999999799e+00,2.424574529000000039e+05
2.441301345999999928e+00,2.424113876999999920e+05
2.441818952999999848e+00,2.423742223000000231e+05
2.442336559000000129e+00,2.423434526999999944e+05
2.442854166000000049e+00,2.423156267999999982e+05
2.443371772999999969e+00,2.422873954000000085e+05
2.443889379999999889e+00,2.422561307999999844e+05
2.444406748000000018e+00,2.422202662999999884e+05
2.444924354999999938e+00,2.421795112000000081e+05
2.445441961000000219e+00,2.421346349000000046e+05
2.445959568000000139e+00,2.420874839999999967e+05
2.446477175000000059e+00,2.420406333999999915e+05
2.446994780999999897e+00,2.419966925000000047e+05
2.447512150000000108e+00,2.419579232999999949e+05
2.448029757000000028e+00,2.419256520000000019e+05
2.448547362999999866e+00,2.418997981999999902e+05
2.449064969999999786e+00,2.418788570999999938e+05
2.449582577000000150e+00,2.418599303000000073e+05
2.450100182999999987e+00,2.418390541999999841e+05
2.450617552000000199e+00,2.418116259999999893e+05
2.451135159000000119e+00,2.417728659999999800e+05
2.451652764999999956e+00,2.417186679000000004e+05
2.452170371999999876e+00,2.416466864999999816e+05
2.452687978999999796e+00,2.415572623000000021e+05
2.453205585000000077e+00,2.414543750000000000e+05
2.453722953999999845e+00,2.413462691999999806e+05
2.454240561000000209e+00,2.412456790000000037e+05
2.454758167000000046e+00,2.411681410000000033e+05
2.455275773999999966e+00,2.411314513999999908e+05
2.455793380999999886e+00,2.411470521999999764e+05
2.456310987000000168e+00,2.412189022000000114e+05
2.456828594000000088e+00,2.413481113999999943e+05
2.457345962999999855e+00,2.415307195000000065e+05
2.457863569000000137e+00,2.417532945000000182e+05
2.458381176000000057e+00,2.419918164999999863e+05
2.458898782999999977e+00,2.422163779999999970e+05
2.459416388999999814e+00,2.423987518000000273e+05
2.459933996000000178e+00,2.425206425999999919e+05
2.460451364999999946e+00,2.425675056000000041e+05
2.460968970999999783e+00,2.425463515999999945e+05
2.461486578000000147e+00,2.424670046999999904e+05
2.462004185000000067e+00,2.423400023999999976e+05
2.462521790999999904e+00,2.421803393000000215e+05
2.463039397999999824e+00,2.420061057000000146e+05
2.463556767000000036e+00,2.418343757000000041e+05
2.464074372999999873e+00,2.416775090999999957e+05
2.464591979999999793e+00,2.415417391000000061e+05
2.465109587000000158e+00,2.414281033000000170e+05
2.465627192999999995e+00,2.413340492000000086e+05
2.466144799999999915e+00,2.412554755000000005e+05
2.466662169000000127e+00,2.411882238000000070e+05
2.467179774999999964e+00,2.411293465999999898e+05
2.467697381999999884e+00,2.410770633999999845e+05
2.468214988999999804e+00,2.410309375999999756e+05
2.468732595000000085e+00,2.409904514000000199e+05
2.469250202000000005e+00,2.409551862000000256e+05
2.469767808999999925e+00,2.409230657999999821e+05
2.470285177000000054e+00,2.408932140999999829e+05
2.470802783999999974e+00,2.408616879999999946e+05
2.471320390999999894e+00,2.408280635000000184e+05
2.471837997000000176e+00,2.407905381000000052e+05
2.472355604000000096e+00,2.407485695999999880e+05
2.472873211000000016e+00,2.407022699999999895e+05
2.473390579000000145e+00,2.406521015999999945e+05
2.473908186000000065e+00,2.405986307999999844e+05
2.474425792999999985e+00,2.405426067000000039e+05
2.474943398999999822e+00,2.404847287000000069e+05
2.475461006000000186e+00,2.404255847000000067e+05
2.475978613000000106e+00,2.403656202000000048e+05
2.476495980999999791e+00,2.403051375999999873e+05
2.477013588000000155e+00,2.402442968999999866e+05
2.477531195000000075e+00,2.401833587000000116e+05
2.478048800999999912e+00,2.401227221000000136e+05
2.478566407999999832e+00,2.400631876000000047e+05
2.479084015000000196e+00,2.400057282999999879e+05
2.479601382999999881e+00,2.399514703999999911e+05
