x(m),wallHeatFlux(W/m2)
1.191825139999999963e-03,2.814385726000000164e+07
1.192210590999999995e-03,2.776502344000000134e+07
1.192980329999999934e-03,2.741543369000000134e+07
1.194132840999999985e-03,2.702922528999999911e+07
1.195665216000000057e-03,2.657854457999999821e+07
1.197574077999999983e-03,2.604565130999999866e+07
1.199854653999999970e-03,2.542246294999999925e+07
1.202502055000000038e-03,2.471130678999999911e+07
1.205509761000000003e-03,2.391789853999999911e+07
1.208871020999999950e-03,2.304789681999999657e+07
1.212577801000000108e-03,2.211490025999999791e+07
1.216621603999999950e-03,2.112173053000000119e+07
1.220992882999999895e-03,2.008817605000000075e+07
1.225681510000000080e-03,1.901104433999999985e+07
1.230676541999999995e-03,1.792507019999999925e+07
1.235966337999999968e-03,1.679972942999999970e+07
1.241538674000000056e-03,1.571243551999999955e+07
1.247380393999999917e-03,1.458367263999999873e+07
1.253477995999999943e-03,1.351287570000000112e+07
1.259817042999999926e-03,1.246707720999999903e+07
1.266383100000000083e-03,1.143599674000000022e+07
1.273160568000000076e-03,1.044766966999999993e+07
1.280133845000000015e-03,9.510663313000001013e+06
1.287286518999999994e-03,8.623979161999998614e+06
1.294602057999999934e-03,7.795140059000000358e+06
1.302063231999999945e-03,7.015714365000000224e+06
1.309652812999999912e-03,6.305276651999999769e+06
1.317353104000000075e-03,5.647211589000000618e+06
1.325146062000000105e-03,5.055879560000000522e+06
1.333013525999999930e-03,4.509306495999999344e+06
1.340926624999999985e-03,4.029255791999999899e+06
1.349445199999999966e-03,3.739162473999999929e+06
1.359237473999999959e-03,3.533428640999999829e+06
1.370493206000000016e-03,3.354893441000000108e+06
1.383430092000000012e-03,3.196562922000000253e+06
1.398298190999999963e-03,3.051730844000000041e+06
1.415384350999999898e-03,2.914907744000000414e+06
1.435017445999999973e-03,2.782935625000000000e+06
1.457574544000000104e-03,2.654582953999999911e+06
1.483487664000000079e-03,2.528331650999999605e+06
1.513251686000000040e-03,2.402855816999999806e+06
1.547432620999999965e-03,2.278888614000000060e+06
1.586678321000000022e-03,2.158125420000000391e+06
1.631728838999999941e-03,2.041837810000000056e+06
1.683428883999999988e-03,1.930414904999999795e+06
1.742742023999999936e-03,1.824058111999999965e+06
1.810765592000000007e-03,1.723813985000000102e+06
1.888747560000000013e-03,1.630072675999999978e+06
1.978104933999999798e-03,1.544541145000000019e+06
2.080443082000000068e-03,1.465151069000000134e+06
2.197577618000000170e-03,1.396345640999999829e+06
2.331555122999999854e-03,1.329905863000000129e+06
2.484677127000000166e-03,1.278649023999999976e+06
2.659521764000000177e-03,1.222734573000000091e+06
2.858966123000000054e-03,1.184458294999999925e+06
3.086204640999999985e-03,1.136655720999999903e+06
3.344765631000000058e-03,1.105375753999999957e+06
3.638520138000000004e-03,1.073462675000000047e+06
3.971683793000000025e-03,1.043685626000000047e+06
4.348805174000000030e-03,1.017110425999999861e+06
4.774741828000000042e-03,9.918777626000000164e+05
5.254611838999999861e-03,9.698576651000001002e+05
5.793726536999999933e-03,9.486020055999999167e+05
6.397490389999999777e-03,9.328977929999999469e+05
7.071269209999999847e-03,9.199742919000000693e+05
7.820223458000000183e-03,9.090709650999999139e+05
8.649101480999999564e-03,9.007620121999999974e+05
9.561997838000000152e-03,8.941527547999999952e+05
1.056208089000000051e-02,8.862455616999999620e+05
1.165129802999999992e-02,8.761188355000000447e+05
1.283007952999999993e-02,8.655161492999999318e+05
1.409705076000000029e-02,8.539251814999999478e+05
1.544879191000000061e-02,8.424660956999999471e+05
1.687966659999999910e-02,8.303736959999999963e+05
1.838174462000000120e-02,8.193854849999999860e+05
1.994485408000000112e-02,8.075706570000000065e+05
2.155675367000000134e-02,7.969850596000000369e+05
2.320346422000000089e-02,7.848140698000000557e+05
2.486971951999999986e-02,7.747003260000000009e+05
2.653950453000000070e-02,7.631109194000000134e+05
2.819666825000000099e-02,7.521103611999999266e+05
2.982554956999999840e-02,7.407510672999999952e+05
3.141154348999999901e-02,7.303709469000000972e+05
3.294160217000000057e-02,7.202986158999999752e+05
3.440462797999999794e-02,7.110753602999999421e+05
3.579169138999999805e-02,7.028745058000000427e+05
3.709616140000000090e-02,6.956914947000000393e+05
3.831367195000000281e-02,6.896294085999999661e+05
3.944197669999999906e-02,6.845390585999999894e+05
4.048075898999999728e-02,6.802844128999999957e+05
4.143133387000000334e-02,6.767959510000000009e+05
4.229638353000000212e-02,6.737928563999999315e+05
4.307962582000000179e-02,6.715821226000000024e+05
4.378556087999999763e-02,6.693188130999999121e+05
4.445404187000000229e-02,6.679061914000000106e+05
4.512252286000000001e-02,6.661492563999999547e+05
4.579100384999999773e-02,6.644424910999999847e+05
4.645948485000000322e-02,6.627741267000000225e+05
4.712796956000000342e-02,6.611470433999999659e+05
4.779645056000000197e-02,6.595583425000000279e+05
4.846493154999999969e-02,6.580035374999999767e+05
4.913341253999999741e-02,6.564798996000000043e+05
4.980189725999999845e-02,6.549865472000000300e+05
5.047037825000000311e-02,6.535243640000000596e+05
5.113885924000000083e-02,6.520949146000000183e+05
5.180734022999999855e-02,6.507002412000000477e+05
5.247582122999999710e-02,6.493415731999999844e+05
5.314430593999999730e-02,6.480181349000000628e+05
5.381278694000000279e-02,6.467260801000000210e+05
5.448126793000000051e-02,6.454598935999999521e+05
5.514974891999999823e-02,6.442140654000000795e+05
5.581823363999999926e-02,6.429851998000000603e+05
5.648671462999999698e-02,6.417719630999999354e+05
5.715519562000000164e-02,6.405743852000000188e+05
5.782367662000000019e-02,6.393929947000000393e+05
5.849215760999999791e-02,6.382286491999999853e+05
5.916064232999999895e-02,6.370827259000000777e+05
5.982912331999999667e-02,6.359565407999999588e+05
6.049760431000000133e-02,6.348515563000000548e+05
6.116608529999999905e-02,6.337678879000000888e+05
6.183456629999999760e-02,6.327067817000000505e+05
6.250304729000000226e-02,6.316635480000000680e+05
6.317152827999999998e-02,6.306376849999999395e+05
6.384001672000000349e-02,6.296301999000000069e+05
6.450849771000000121e-02,6.286345017000000225e+05
6.517697870999999976e-02,6.276492137000000803e+05
6.584545969999999748e-02,6.266745206999999937e+05
6.651394068999999520e-02,6.257113203000000212e+05
6.718242168000000680e-02,6.247607333000000799e+05
6.785090268000000535e-02,6.238235193000000436e+05
6.851938367000000307e-02,6.228997691000000341e+05
6.918786466000000079e-02,6.219889133999999613e+05
6.985635310000000431e-02,6.210903454999999376e+05
7.052483410000000286e-02,6.202037743999999948e+05
7.119331509000000058e-02,6.193288622999999207e+05
7.186179607999999830e-02,6.184653987999999663e+05
7.253027706999999602e-02,6.176126116000000620e+05
7.319875806999999457e-02,6.167702082999999402e+05
7.386723906000000617e-02,6.159361172999999253e+05
7.453572005000000389e-02,6.151138283999999985e+05
7.520420104000000161e-02,6.143018733999999240e+05
7.587268949000000595e-02,6.134966576000000350e+05
7.654117048000000367e-02,6.127014050000000279e+05
7.720965147000000139e-02,6.119152679999999236e+05
7.787813245999999912e-02,6.111375346000000136e+05
7.854661344999999684e-02,6.103682004999999190e+05
7.921509444999999539e-02,6.096075225000000792e+05
7.988357543999999311e-02,6.088554900999999372e+05
8.055205643000000471e-02,6.081115291000000434e+05
8.122053742000000243e-02,6.073746263999999501e+05
8.188902587000000677e-02,6.066437515999999596e+05
8.255750686000000449e-02,6.059190082999999868e+05
8.322598785000000221e-02,6.052019366000000155e+05
8.389446883999999993e-02,6.044950611999999965e+05
8.456294983999999848e-02,6.038009251000001095e+05
8.523143082999999620e-02,6.031205370000000112e+05
8.589991181999999392e-02,6.024525660999999382e+05
8.656839281000000552e-02,6.017935274000000209e+05
8.723687381000000407e-02,6.011389063999999780e+05
8.790536224999999371e-02,6.004845607000000309e+05
8.857384324000000531e-02,5.998282454000000143e+05
8.924232423000000303e-02,5.991701435000000056e+05
8.991080523000000158e-02,5.985125004000000190e+05
9.057928621999999930e-02,5.978581791999998968e+05
9.124776720999999702e-02,5.972100496000000276e+05
9.191624819999999474e-02,5.965697293999999529e+05
9.258472919000000634e-02,5.959379863999999361e+05
9.325321019000000489e-02,5.953143261000000639e+05
9.392169862999999452e-02,5.946979599999999627e+05
9.459017962000000612e-02,5.940879037999999709e+05
9.525866061000000384e-02,5.934833307000000495e+05
9.592714161000000239e-02,5.928835232000000542e+05
9.659562260000000011e-02,5.922879975000000559e+05
9.726410358999999783e-02,5.916968352000000887e+05
9.793258457999999556e-02,5.911104952000000048e+05
9.860106557999999410e-02,5.905296337000000058e+05
9.926954657000000570e-02,5.899546809000000358e+05
9.993803500999999534e-02,5.893855183999999426e+05
1.006065160000000069e-01,5.888214967999999644e+05
1.012749970000000055e-01,5.882611683000000194e+05
1.019434780000000040e-01,5.877034066999999341e+05
1.026119590000000026e-01,5.871474370000000345e+05
1.032804400000000011e-01,5.865938644999999087e+05
1.039489209999999997e-01,5.860441133999999147e+05
1.046174019999999982e-01,5.855002427000000607e+05
1.052858829000000024e-01,5.849637882999998983e+05
1.059543713999999970e-01,5.844356236999999965e+05
1.066228523999999955e-01,5.839154379000000190e+05
1.072913333999999941e-01,5.834020423000000883e+05
1.079598144000000065e-01,5.828936650999999838e+05
1.086282954000000051e-01,5.823886167000000132e+05
1.092967764000000036e-01,5.818855507000000216e+05
1.099652572999999939e-01,5.813840929999999935e+05
1.106337383000000063e-01,5.808842891000000527e+05
1.113022193000000049e-01,5.803867029999999795e+05
1.119707077999999995e-01,5.798918852999999654e+05
1.126391887999999980e-01,5.794004102999999886e+05
1.133076697999999966e-01,5.789126561000000220e+05
1.139761507999999951e-01,5.784288111999999965e+05
1.146446316999999993e-01,5.779488468000000576e+05
1.153131126999999978e-01,5.774722939999999944e+05
1.159815936999999963e-01,5.769988482000000076e+05
1.166500746999999949e-01,5.765282081000000471e+05
1.173185556999999934e-01,5.760603255999999819e+05
1.179870442000000019e-01,5.755951540000000969e+05
1.186555251000000061e-01,5.751328562000000384e+05
1.193240061000000046e-01,5.746731071000000229e+05
1.199924871000000032e-01,5.742163460000000196e+05
1.206609681000000017e-01,5.737625233000000007e+05
1.213294491000000003e-01,5.733125777999999700e+05
1.219979300999999988e-01,5.728657345999999670e+05
1.226664110999999974e-01,5.724220777999999700e+05
1.233348920999999959e-01,5.719814216000000015e+05
1.240033804999999961e-01,5.715437173999999650e+05
1.246718614999999947e-01,5.711087852999999886e+05
1.253403425000000071e-01,5.706767125999999698e+05
1.260088235000000056e-01,5.702471916000000201e+05
1.266773045000000042e-01,5.698203776000000071e+05
1.273457855000000027e-01,5.693960982000000076e+05
1.280142665000000013e-01,5.689743782999999821e+05
1.286827474999999998e-01,5.685553704000000143e+05
1.293512284999999984e-01,5.681391604999999981e+05
1.300197094999999969e-01,5.677257053000000305e+05
1.306881904999999955e-01,5.673148360000000102e+05
1.313566714999999940e-01,5.669065131999999285e+05
1.320251524000000121e-01,5.665005105999999214e+05
1.326936482999999944e-01,5.660968839000000153e+05
1.333621292999999930e-01,5.656956977000000188e+05
1.340306102999999915e-01,5.652967208000000101e+05
1.346990912999999901e-01,5.649000527000000002e+05
1.353675722999999886e-01,5.645055275999999139e+05
1.360360532999999872e-01,5.641131838999999454e+05
1.367045343000000135e-01,5.637232222000000766e+05
1.373730153000000120e-01,5.633357370999999112e+05
1.380414963000000106e-01,5.629505640000000130e+05
1.387099773000000091e-01,5.625676781999999657e+05
1.393784583000000077e-01,5.621868053999999538e+05
1.400469393000000062e-01,5.618074405000000261e+05
1.407154201999999965e-01,5.614295074999999488e+05
1.413839011999999951e-01,5.610528150000000605e+05
1.420523821999999936e-01,5.606773373000000138e+05
1.427208631999999922e-01,5.603032390000000596e+05
1.433893441999999907e-01,5.599308425000000279e+05
1.440578251999999893e-01,5.595606365000000224e+05
1.447263210999999994e-01,5.591933403999999864e+05
1.453948020999999979e-01,5.588295315999999875e+05
1.460632830999999965e-01,5.584699616999999853e+05
1.467317640999999950e-01,5.581145653000000166e+05
1.474002450999999936e-01,5.577632929000000004e+05
1.480687260999999921e-01,5.574153561000000918e+05
1.487372070999999907e-01,5.570699393000000855e+05
1.494056880000000087e-01,5.567261168999999063e+05
1.500741690000000073e-01,5.563831587000000291e+05
1.507426500000000058e-01,5.560404437000000617e+05
1.514111310000000044e-01,5.556979205999999540e+05
1.520796120000000029e-01,5.553554718000000576e+05
1.527480930000000015e-01,5.550134272000000346e+05
1.534165740000000000e-01,5.546721522000000114e+05
1.540850549999999985e-01,5.543321792000000132e+05
1.547535359999999971e-01,5.539940191000000341e+05
1.554220169999999956e-01,5.536581861999999965e+05
1.560904979999999942e-01,5.533248033999999752e+05
1.567589789999999927e-01,5.529941613999999827e+05
1.574274749000000029e-01,5.526659571999999462e+05
1.580959557999999932e-01,5.523401132999999681e+05
1.587644367999999917e-01,5.520161258000000380e+05
1.594329177999999902e-01,5.516938732999999775e+05
1.601013987999999888e-01,5.513730705999999773e+05
1.607698797999999873e-01,5.510538078000000678e+05
1.614383608000000137e-01,5.507357022000000579e+05
1.621068418000000122e-01,5.504188974999999627e+05
1.627753228000000107e-01,5.501031696999999695e+05
1.634438038000000093e-01,5.497885104999999749e+05
1.641122848000000078e-01,5.494748011999999871e+05
1.647807658000000064e-01,5.491622356999999611e+05
1.654492468000000049e-01,5.488508452999999281e+05
1.661177278000000035e-01,5.485409686999999685e+05
1.667862086999999938e-01,5.482327315999999410e+05
1.674546896999999923e-01,5.479260696000000462e+05
1.681231706999999909e-01,5.476218440999999875e+05
1.687916516999999894e-01,5.473176809000000358e+05
1.694601475999999995e-01,5.470148914000000805e+05
1.701286285999999981e-01,5.467156489999999758e+05
1.707971095999999966e-01,5.464169570999999996e+05
1.714655905999999952e-01,5.461193435000000754e+05
1.721340715999999937e-01,5.458229354000000749e+05
1.728025525999999923e-01,5.455280097000000533e+05
1.734710335999999908e-01,5.452341644999999553e+05
1.741395145999999894e-01,5.449417230999999447e+05
1.748079955999999879e-01,5.446492478000000119e+05
1.754764765999999865e-01,5.443597090999999782e+05
1.761449575000000045e-01,5.440717563000000082e+05
1.768134385000000031e-01,5.437830387999999803e+05
1.774819195000000016e-01,5.434962617000000319e+05
1.781504005000000002e-01,5.432112210999999661e+05
1.788188814999999987e-01,5.429275245000000577e+05
1.794873624999999973e-01,5.426451601999999257e+05
1.801558434999999958e-01,5.423640184000000590e+05
1.808243394000000059e-01,5.420841343999999808e+05
1.814928204000000045e-01,5.418054455999999773e+05
1.821613014000000030e-01,5.415281234999999870e+05
1.828297824000000016e-01,5.412520594999999739e+05
1.834982634000000001e-01,5.409774681000000564e+05
1.841667443999999987e-01,5.407042406999999657e+05
1.848352252999999890e-01,5.404325438999999315e+05
1.855037062999999875e-01,5.401622249999999767e+05
1.861721873000000138e-01,5.398931829000000143e+05
1.868406683000000124e-01,5.396253130000000820e+05
1.875091493000000109e-01,5.393586051999999909e+05
1.881776303000000095e-01,5.390928689999999478e+05
1.888461113000000080e-01,5.388281840999999549e+05
1.895145923000000066e-01,5.385644497999999439e+05
1.901830733000000051e-01,5.383016583000000101e+05
1.908515543000000036e-01,5.380396676000000443e+05
1.915200353000000022e-01,5.377785148000000045e+05
1.921885163000000007e-01,5.375180598000000464e+05
1.928570122000000109e-01,5.372584260999999242e+05
1.935254931000000012e-01,5.369994324000000488e+05
1.941939740999999997e-01,5.367413718000000808e+05
1.948624550999999983e-01,5.364841480000000447e+05
1.955309360999999968e-01,5.362280501999999397e+05
1.961994170999999954e-01,5.359729806000000099e+05
1.968678980999999939e-01,5.357190986000000266e+05
1.975363790999999924e-01,5.354663076000000583e+05
1.982048600999999910e-01,5.352147204999999376e+05
1.988733410999999895e-01,5.349639940000000643e+05
1.995418220999999881e-01,5.347144927000000607e+05
2.002103030999999866e-01,5.344657909000000218e+05
2.008787841000000129e-01,5.342180855000000447e+05
2.015472651000000115e-01,5.339714501000000164e+05
2.022157460000000018e-01,5.337258318000000436e+05
2.028842270000000003e-01,5.334813440000000410e+05
2.035527079999999989e-01,5.332378120000000345e+05
2.042211889999999974e-01,5.329953893999999855e+05
2.048896699999999960e-01,5.327538222000000533e+05
2.055581659000000061e-01,5.325132641999999760e+05
2.062266469000000046e-01,5.322734236999999266e+05
2.068951279000000032e-01,5.320344946999999229e+05
2.075636089000000017e-01,5.317960690999999642e+05
2.082320899000000003e-01,5.315593336999999592e+05
2.089005708999999988e-01,5.313216212000000523e+05
2.095690518999999974e-01,5.310844005999999354e+05
2.102375328999999959e-01,5.308499849999999860e+05
2.109060137999999862e-01,5.306157238999999827e+05
2.115744948000000125e-01,5.303819664000000339e+05
2.122429758000000111e-01,5.301492147000000114e+05
2.129114568000000096e-01,5.299174196000000229e+05
2.135799378000000082e-01,5.296867277999999933e+05
2.142484188000000067e-01,5.294570124000000069e+05
2.149168998000000053e-01,5.292284573000000091e+05
2.155853808000000038e-01,5.290010126000000164e+05
2.162538618000000024e-01,5.287747833999999566e+05
2.169223428000000009e-01,5.285497197000000160e+05
2.175908387000000110e-01,5.283258493000000017e+05
2.182593197000000096e-01,5.281028956999999937e+05
2.189278007000000081e-01,5.278809264999999432e+05
2.195962815999999984e-01,5.276595936000000220e+05
2.202647625999999970e-01,5.274388917000000365e+05
2.209332435999999955e-01,5.272185902999999234e+05
2.216017245999999941e-01,5.269986859999999870e+05
2.222702055999999926e-01,5.267790635000000475e+05
2.229386865999999912e-01,5.265598316999999806e+05
2.236071675999999897e-01,5.263410977000000421e+05
2.242756485999999883e-01,5.261230046999999322e+05
2.249441295999999868e-01,5.259056567999999970e+05
2.256126106000000131e-01,5.256890843000001041e+05
2.262810916000000117e-01,5.254732072000000626e+05
2.269495726000000102e-01,5.252579100999999791e+05
2.276180536000000088e-01,5.250428249000000069e+05
2.282865344999999990e-01,5.248276965000000782e+05
2.289550304000000092e-01,5.246122364999999991e+05
2.296235114000000077e-01,5.243964478000000818e+05
2.302919924000000063e-01,5.241804769000000088e+05
2.309604734000000048e-01,5.239648260000000591e+05
2.316289544000000034e-01,5.237500631000000285e+05
2.322974354000000019e-01,5.235367853000000468e+05
2.329659164000000005e-01,5.233256535000000149e+05
2.336343973999999990e-01,5.231165078999999678e+05
2.343028783999999975e-01,5.229104952000000048e+05
2.349713593999999961e-01,5.227032987999999896e+05
2.356398403999999946e-01,5.225163872000000556e+05
2.363083213999999932e-01,5.223279456999999820e+05
2.369768023000000112e-01,5.221265865999999805e+05
2.376452833000000098e-01,5.219264297000000370e+05
2.383137643000000083e-01,5.217286094000000157e+05
2.389822453000000069e-01,5.215304089000000386e+05
2.396507263000000054e-01,5.213389338999999454e+05
2.403192073000000040e-01,5.211307495000000345e+05
2.409876883000000025e-01,5.209847811000000220e+05
2.416561842000000127e-01,5.206866892999999691e+05
2.423246652000000112e-01,5.205570713999999571e+05
2.429931462000000097e-01,5.203449984000000404e+05
2.436616272000000083e-01,5.201463979999999283e+05
2.443301082000000068e-01,5.199501014999999898e+05
2.449985892000000054e-01,5.197532238999999827e+05
2.456670702000000039e-01,5.195541889000000665e+05
2.463355510999999942e-01,5.193562344000000157e+05
2.470040320999999928e-01,5.191590834999999497e+05
2.476725130999999913e-01,5.189604286000000429e+05
