x(m),wallP(Pa)
2.250443934999999840e+00,1.533380576000000110e+04
2.251112460999999954e+00,1.533390722999999889e+04
2.251780987000000067e+00,1.533400402000000031e+04
2.252449512000000098e+00,1.533408876000000055e+04
2.253118038000000212e+00,1.533416708999999901e+04
2.253786563999999881e+00,1.533424710000000050e+04
2.254454851000000204e+00,1.533431784000000152e+04
2.255123376999999874e+00,1.533438115000000107e+04
2.255791902999999987e+00,1.533444073000000026e+04
2.256460428000000018e+00,1.533449303000000145e+04
2.257128954000000132e+00,1.533454054999999971e+04
2.257797241000000010e+00,1.533458343999999852e+04
2.258465767000000124e+00,1.533462077999999929e+04
2.259134292999999793e+00,1.533464992999999959e+04
2.259802817999999824e+00,1.533467525999999998e+04
2.260471343999999938e+00,1.533469318999999996e+04
2.261139630999999817e+00,1.533470837000000029e+04
2.261808156999999930e+00,1.533471617999999944e+04
2.262476683000000044e+00,1.533471491000000060e+04
2.263145208000000075e+00,1.533471167000000059e+04
2.263813734000000188e+00,1.533470198999999957e+04
2.264482259999999858e+00,1.533468682000000081e+04
2.265150547000000181e+00,1.533466705000000002e+04
2.265819072999999850e+00,1.533464098999999987e+04
2.266487597999999881e+00,1.533461207000000104e+04
2.267156123999999995e+00,1.533457949999999983e+04
2.267824650000000108e+00,1.533454326000000037e+04
2.268492936999999987e+00,1.533449985999999990e+04
2.269161463000000101e+00,1.533445359000000099e+04
2.269829988000000132e+00,1.533440275999999903e+04
2.270498513999999801e+00,1.533434828999999991e+04
2.271167039999999915e+00,1.533429201999999896e+04
2.271835566000000028e+00,1.533423134000000027e+04
2.272503852999999907e+00,1.533416874000000098e+04
2.273172379000000021e+00,1.533410433000000012e+04
2.273840904000000052e+00,1.533403539999999884e+04
2.274509430000000165e+00,1.533396205000000009e+04
2.275177955999999835e+00,1.533388587999999982e+04
2.275846243000000158e+00,1.533380609999999979e+04
2.276514768999999827e+00,1.533372451999999976e+04
2.277183293999999858e+00,1.533364117000000078e+04
2.277851819999999972e+00,1.533355071000000135e+04
2.278520346000000085e+00,1.533346197000000029e+04
2.279188871000000116e+00,1.533336783000000105e+04
2.279857159000000077e+00,1.533326824000000124e+04
2.280525684000000108e+00,1.533316156000000046e+04
2.281194210000000222e+00,1.533306209999999919e+04
2.281862735999999892e+00,1.533295904999999948e+04
2.282531260999999922e+00,1.533284875999999895e+04
2.283199548999999884e+00,1.533274036999999953e+04
2.283868073999999915e+00,1.533262668999999914e+04
2.284536600000000028e+00,1.533251115000000027e+04
2.285205126000000142e+00,1.533239748999999938e+04
2.285873651999999812e+00,1.533228571000000011e+04
2.286542176999999842e+00,1.533217400999999882e+04
2.287210464000000165e+00,1.533206250000000000e+04
2.287878989999999835e+00,1.533195456000000013e+04
2.288547515999999948e+00,1.533185212000000138e+04
2.289216042000000062e+00,1.533174977000000035e+04
2.289884567000000093e+00,1.533165484999999899e+04
2.290552855000000054e+00,1.533156714000000102e+04
2.291221380000000085e+00,1.533148313000000053e+04
2.291889906000000199e+00,1.533140822999999909e+04
2.292558431999999868e+00,1.533134062999999878e+04
2.293226956999999899e+00,1.533127505000000019e+04
2.293895244999999861e+00,1.533122022999999899e+04
2.294563769999999892e+00,1.533117632000000049e+04
2.295232296000000005e+00,1.533113608999999997e+04
2.295900822000000119e+00,1.533110867999999937e+04
2.296569347000000150e+00,1.533107574999999997e+04
2.297237872999999819e+00,1.533105909999999858e+04
2.297906160000000142e+00,1.533105517000000145e+04
2.298574685999999812e+00,1.533104037000000062e+04
2.299243211999999925e+00,1.533103112999999939e+04
2.299911736999999956e+00,1.533107245999999941e+04
2.300580263000000070e+00,1.533206533000000127e+04
2.301248549999999948e+00,1.533833698000000004e+04
2.301917076000000062e+00,1.539123546999999962e+04
2.302585602000000176e+00,1.599868249999999898e+04
2.303254127999999845e+00,2.149832840999999826e+04
2.303922652999999876e+00,2.821824453999999969e+04
2.304591178999999990e+00,3.271633644999999888e+04
2.305259465999999868e+00,3.555228413000000000e+04
2.305927991999999982e+00,3.750554501000000164e+04
2.306596518000000096e+00,3.895385323000000062e+04
2.307265043000000126e+00,4.008317053999999916e+04
2.307933568999999796e+00,4.100421575999999914e+04
2.308601856000000119e+00,4.179427281000000221e+04
2.309270381999999788e+00,4.250728906999999890e+04
2.309938907999999902e+00,4.317042970000000059e+04
2.310607432999999933e+00,4.379171040999999968e+04
2.311275959000000046e+00,4.437887700999999652e+04
2.311944485000000160e+00,4.493759288999999990e+04
2.312612772000000039e+00,4.547145197999999800e+04
2.313281298000000152e+00,4.598512507000000187e+04
2.313949823000000183e+00,4.648134554999999818e+04
2.314618348999999853e+00,4.696167710000000079e+04
2.315286874999999966e+00,4.742769322000000102e+04
2.315955161999999845e+00,4.788087127000000328e+04
2.316623687999999959e+00,4.832162844999999652e+04
2.317292212999999990e+00,4.875117354999999952e+04
2.317960739000000103e+00,4.916996489999999903e+04
2.318629265000000217e+00,4.957901178000000073e+04
2.319297552000000096e+00,4.997873543000000063e+04
2.319966078000000209e+00,5.036974300000000221e+04
2.320634603999999879e+00,5.075210119999999733e+04
2.321303128999999910e+00,5.112593957000000228e+04
2.321971655000000023e+00,5.149142856000000029e+04
2.322640181000000137e+00,5.184863260000000446e+04
2.323308468000000016e+00,5.219767353999999614e+04
2.323976994000000129e+00,5.253871753000000172e+04
2.324645519000000160e+00,5.287201916999999958e+04
2.325314044999999830e+00,5.319789085999999952e+04
2.325982570999999943e+00,5.351670765000000392e+04
2.326650857999999822e+00,5.382887766000000556e+04
2.327319383999999935e+00,5.413485098000000289e+04
2.327987908999999966e+00,5.443502053999999771e+04
2.328656435000000080e+00,5.472970939999999973e+04
2.329324961000000194e+00,5.501913319000000047e+04
2.329993485999999780e+00,5.530336180999999488e+04
2.330661774000000186e+00,5.558231179999999586e+04
2.331330299000000217e+00,5.585558537000000069e+04
2.331998824999999886e+00,5.612289465999999811e+04
2.332667351000000000e+00,5.638355720999999903e+04
2.333335876000000031e+00,5.663675239999999758e+04
2.334004163999999992e+00,5.688158898999999656e+04
2.334672689000000023e+00,5.711716872000000149e+04
2.335341215000000137e+00,5.734198094999999739e+04
2.336009740999999806e+00,5.755598236000000179e+04
2.336678266999999920e+00,5.775809397999999783e+04
2.337346791999999951e+00,5.794752548000000388e+04
2.338015078999999830e+00,5.812302394000000641e+04
2.338683604999999943e+00,5.828484419999999955e+04
2.339352131000000057e+00,5.843293574000000081e+04
2.340020657000000170e+00,5.856803338000000076e+04
2.340689182000000201e+00,5.869144613000000390e+04
2.341357470000000163e+00,5.880508621000000130e+04
2.342025995000000194e+00,5.891179541999999492e+04
2.342694520999999863e+00,5.901570689999999740e+04
2.343363046999999977e+00,5.912277750999999989e+04
2.344031572000000008e+00,5.924090572999999858e+04
2.344700098000000121e+00,5.937928785999999673e+04
2.345368385000000000e+00,5.954834530000000086e+04
2.346036911000000114e+00,5.976064637000000221e+04
2.346705436999999783e+00,6.002844572000000335e+04
2.347373961999999814e+00,6.036200806000000011e+04
2.348042487999999928e+00,6.079180846999999630e+04
2.348710774999999806e+00,6.154479929999999877e+04
2.349379300999999920e+00,6.230974842999999964e+04
2.350047827000000034e+00,6.327265522999999666e+04
2.350716352000000064e+00,6.446503656000000046e+04
2.351384878000000178e+00,6.594235399999999208e+04
2.352053165000000057e+00,6.766505216999999539e+04
2.352721691000000170e+00,7.199822224000000278e+04
2.353314876999999861e+00,6.475229822999999305e+04
2.353832244999999990e+00,6.569990656999999192e+04
2.354349851999999910e+00,6.455862942999999359e+04
2.354867458000000191e+00,6.365772427000000607e+04
2.355385065000000111e+00,6.357913939000000391e+04
2.355902672000000031e+00,6.378761280999999872e+04
2.356420278999999951e+00,6.428694307000000845e+04
2.356937647000000080e+00,6.499594602999999915e+04
2.357455254000000000e+00,6.589032209000000148e+04
2.357972859999999837e+00,6.680392002999999386e+04
2.358490467000000201e+00,6.784626741000000038e+04
2.359008074000000121e+00,6.897153830000000016e+04
2.359525681000000041e+00,7.017561951000000408e+04
2.360043286999999879e+00,7.144182351000000199e+04
2.360560656000000090e+00,7.276566581999999471e+04
2.361078261999999928e+00,7.414196934999999939e+04
2.361595868999999848e+00,7.556831986000000325e+04
2.362113476000000212e+00,7.704288029999998980e+04
2.362631083000000132e+00,7.856481236000001081e+04
2.363148688999999969e+00,8.013380002999999851e+04
2.363666058000000181e+00,8.174999713000000338e+04
2.364183664000000018e+00,8.341365867999999318e+04
2.364701270999999938e+00,8.512522071999999753e+04
2.365218877999999858e+00,8.688484355999999389e+04
2.365736484999999778e+00,8.869273841000000539e+04
2.366254091000000059e+00,9.054861049000000639e+04
2.366771459999999827e+00,9.245213845000001311e+04
2.367289066000000108e+00,9.440259931999999390e+04
2.367806673000000028e+00,9.639931896000000415e+04
2.368324279999999948e+00,9.844149236000000383e+04
2.368841886999999868e+00,1.005283114000000060e+05
2.369359493000000150e+00,1.026593739999999962e+05
2.369876861999999917e+00,1.048342730000000010e+05
2.370394468000000199e+00,1.070529138999999996e+05
2.370912075000000119e+00,1.093155823999999993e+05
2.371429682000000039e+00,1.116223631999999925e+05
2.371947288999999959e+00,1.139731059999999998e+05
2.372464894999999796e+00,1.163672905000000028e+05
2.372982502000000160e+00,1.188040555000000022e+05
2.373499869999999845e+00,1.212817255000000005e+05
2.374017477000000209e+00,1.237982281999999977e+05
2.374535084000000129e+00,1.263514061000000074e+05
2.375052691000000049e+00,1.289392201999999961e+05
2.375570296999999886e+00,1.315596394000000146e+05
2.376087903999999806e+00,1.342114587000000174e+05
2.376605271999999935e+00,1.368939824000000081e+05
2.377122878999999855e+00,1.396078435999999929e+05
2.377640486000000219e+00,1.423533506999999809e+05
2.378158092000000057e+00,1.451322560999999987e+05
2.378675698999999977e+00,1.479443377000000037e+05
2.379193305999999897e+00,1.507894582000000228e+05
2.379710674000000026e+00,1.536662315999999992e+05
2.380228280999999946e+00,1.565733506999999809e+05
2.380745887999999866e+00,1.595075178000000014e+05
2.381263494000000147e+00,1.624636717000000062e+05
2.381781101000000067e+00,1.654389459999999963e+05
2.382298707999999987e+00,1.684294032000000007e+05
2.382816076000000116e+00,1.714341189000000013e+05
2.383333683000000036e+00,1.744519756000000052e+05
2.383851289999999956e+00,1.774825114999999932e+05
2.384368895999999793e+00,1.805266129000000074e+05
2.384886503000000157e+00,1.835848704999999900e+05
2.385404110000000077e+00,1.866558900000000140e+05
2.385921716999999997e+00,1.897394366000000155e+05
2.386439085000000127e+00,1.928311271999999881e+05
2.386956692000000047e+00,1.959238056000000215e+05
2.387474297999999884e+00,1.990107068000000145e+05
2.387991904999999804e+00,2.020831717000000062e+05
2.388509512000000168e+00,2.051338129000000190e+05
2.389027119000000088e+00,2.081581295000000100e+05
2.389544487000000217e+00,2.111557974000000104e+05
2.390062094000000137e+00,2.141301653999999980e+05
2.390579699999999974e+00,2.170859545000000217e+05
2.391097306999999894e+00,2.200252184000000125e+05
2.391614913999999814e+00,2.229442698000000091e+05
2.392132521000000178e+00,2.258331361000000034e+05
2.392649888999999863e+00,2.286773300000000163e+05
2.393167495999999783e+00,2.314626422000000020e+05
2.393685102000000064e+00,2.341790070000000123e+05
2.394202708999999984e+00,2.368263833999999915e+05
2.394720315999999904e+00,2.394142008999999962e+05
2.395237922999999824e+00,2.419579873000000080e+05
2.395755290999999954e+00,2.444754483999999939e+05
2.396272897999999874e+00,2.469793833999999915e+05
2.396790504000000155e+00,2.494724845999999961e+05
2.397308111000000075e+00,2.519438355999999912e+05
2.397825717999999995e+00,2.543720391999999993e+05
2.398343324999999915e+00,2.567259780000000028e+05
2.398860693000000044e+00,2.589843020999999717e+05
2.399378299999999964e+00,2.611368067999999912e+05
2.399895905999999801e+00,2.631939120999999577e+05
2.400413513000000165e+00,2.651924589999999735e+05
2.400931120000000085e+00,2.671785739000000176e+05
2.401448727000000005e+00,2.691917063999999664e+05
2.401966332999999842e+00,2.712458520000000135e+05
2.402483702000000054e+00,2.733206791999999550e+05
2.403001307999999892e+00,2.753652956000000122e+05
2.403518914999999811e+00,2.773287397000000346e+05
2.404036522000000176e+00,2.791964536000000080e+05
2.404554129000000096e+00,2.809837465000000084e+05
2.405071734999999933e+00,2.827432611000000034e+05
2.405589104000000145e+00,2.843622834000000148e+05
2.406106709999999982e+00,2.859390386000000290e+05
2.406624316999999902e+00,2.869131155000000144e+05
2.407141923999999822e+00,2.873671352999999654e+05
2.407659531000000186e+00,2.870855461999999825e+05
2.408177137000000023e+00,2.860454821999999695e+05
2.408694505999999791e+00,2.843943166000000201e+05
2.409212112000000072e+00,2.822367553000000189e+05
2.409729718999999992e+00,2.798497791999999899e+05
2.410247325999999912e+00,2.774447712000000174e+05
2.410764932999999832e+00,2.753662036000000080e+05
2.411282539000000114e+00,2.735893932999999961e+05
2.411799907999999881e+00,2.722675173000000068e+05
2.412317514000000163e+00,2.712566006000000052e+05
2.412835121000000083e+00,2.704375280999999959e+05
2.413352728000000003e+00,2.697118558999999659e+05
2.413870334999999923e+00,2.690057294999999576e+05
2.414387941000000204e+00,2.682757018999999855e+05
2.414905548000000124e+00,2.675129623000000138e+05
2.415422915999999809e+00,2.667384859000000288e+05
2.415940523000000173e+00,2.659847672000000020e+05
2.416458130000000093e+00,2.652759655999999959e+05
2.416975737000000013e+00,2.646166155999999610e+05
2.417493342999999850e+00,2.639910775000000140e+05
2.418010950000000214e+00,2.633709504999999772e+05
2.418528317999999899e+00,2.627255349000000278e+05
2.419045924999999819e+00,2.620307460000000137e+05
2.419563532000000183e+00,2.612789088999999803e+05
2.420081139000000103e+00,2.604840045000000391e+05
2.420598744999999941e+00,2.596762049000000115e+05
2.421116351999999861e+00,2.588908786999999720e+05
2.421633719999999990e+00,2.581564116999999678e+05
2.422151326999999910e+00,2.574837830999999715e+05
2.422668933999999830e+00,2.568642583999999915e+05
2.423186541000000194e+00,2.562764113999999827e+05
2.423704147000000031e+00,2.556957891999999993e+05
2.424221753999999951e+00,2.551030438999999897e+05
2.424739122000000080e+00,2.544900168999999878e+05
2.425256729000000000e+00,2.538613527999999933e+05
2.425774335999999920e+00,2.532320415999999968e+05
2.426291942999999840e+00,2.526180059000000183e+05
2.426809549000000121e+00,2.520338798999999999e+05
2.427327156000000041e+00,2.514783313999999955e+05
2.427844762999999961e+00,2.509612933999999950e+05
2.428362131000000090e+00,2.504571479999999865e+05
2.428879738000000010e+00,2.500031382999999914e+05
2.429397344999999930e+00,2.495431414999999979e+05
2.429914951000000212e+00,2.491207368999999890e+05
2.430432558000000132e+00,2.486915837999999931e+05
2.430950165000000052e+00,2.483012241000000213e+05
2.431467533000000181e+00,2.479405760999999766e+05
2.431985140000000101e+00,2.476078151000000071e+05
2.432502747000000021e+00,2.472960547000000079e+05
2.433020352999999858e+00,2.469990928999999887e+05
2.433537960000000222e+00,2.467144455000000016e+05
2.434055567000000142e+00,2.464433662000000186e+05
2.434572934999999827e+00,2.461882186999999976e+05
2.435090542000000191e+00,2.459503917000000074e+05
2.435608149000000111e+00,2.457300218000000168e+05
2.436125754999999948e+00,2.455251068999999843e+05
2.436643361999999868e+00,2.453317523999999976e+05
2.437160968999999788e+00,2.451441457999999984e+05
2.437678336999999917e+00,2.449550370999999868e+05
2.438195943999999837e+00,2.447568029000000097e+05
2.438713551000000201e+00,2.445420963999999803e+05
2.439231157000000039e+00,2.443051322999999975e+05
2.439748763999999959e+00,2.440427975000000151e+05
2.440266370999999879e+00,2.437555443999999843e+05
2.440783977999999799e+00,2.434483205000000016e+05
2.441301345999999928e+00,2.431304994000000006e+05
2.441818952999999848e+00,2.428154380999999994e+05
2.442336559000000129e+00,2.425195148000000045e+05
2.442854166000000049e+00,2.422597117999999900e+05
2.443371772999999969e+00,2.420512801000000036e+05
2.443889379999999889e+00,2.419053411999999953e+05
2.444406748000000018e+00,2.418283589999999967e+05
2.444924354999999938e+00,2.418126957999999868e+05
2.445441961000000219e+00,2.418447679999999818e+05
2.445959568000000139e+00,2.419104220999999961e+05
2.446477175000000059e+00,2.419924696999999869e+05
2.446994780999999897e+00,2.420711472000000067e+05
2.447512150000000108e+00,2.421267762999999977e+05
2.448029757000000028e+00,2.421424163000000117e+05
2.448547362999999866e+00,2.421096444999999949e+05
2.449064969999999786e+00,2.420259067000000214e+05
2.449582577000000150e+00,2.418909597999999824e+05
2.450100182999999987e+00,2.417075368000000017e+05
2.450617552000000199e+00,2.414828733000000066e+05
2.451135159000000119e+00,2.412298649999999907e+05
2.451652764999999956e+00,2.409677564000000129e+05
2.452170371999999876e+00,2.407230346000000136e+05
2.452687978999999796e+00,2.405177222999999940e+05
2.453205585000000077e+00,2.403993944999999949e+05
2.453722953999999845e+00,2.403995382999999856e+05
2.454240561000000209e+00,2.404989909000000043e+05
2.454758167000000046e+00,2.407024091000000190e+05
2.455275773999999966e+00,2.410055279000000155e+05
2.455793380999999886e+00,2.413822283000000170e+05
2.456310987000000168e+00,2.417870354999999981e+05
2.456828594000000088e+00,2.421706553999999887e+05
2.457345962999999855e+00,2.424815094999999856e+05
2.457863569000000137e+00,2.427033172999999952e+05
2.458381176000000057e+00,2.427847834999999905e+05
2.458898782999999977e+00,2.427621877000000095e+05
2.459416388999999814e+00,2.426620020999999833e+05
2.459933996000000178e+00,2.425018120999999810e+05
2.460451364999999946e+00,2.423068227999999945e+05
2.460968970999999783e+00,2.421056367000000027e+05
2.461486578000000147e+00,2.419220221999999776e+05
2.462004185000000067e+00,2.417701994999999879e+05
2.462521790999999904e+00,2.416547583999999915e+05
2.463039397999999824e+00,2.415730138000000152e+05
2.463556767000000036e+00,2.415182256999999809e+05
2.464074372999999873e+00,2.414827868000000017e+05
2.464591979999999793e+00,2.414596381000000110e+05
2.465109587000000158e+00,2.414431808000000019e+05
2.465627192999999995e+00,2.414294125000000058e+05
2.466144799999999915e+00,2.414158696000000054e+05
2.466662169000000127e+00,2.414011991000000271e+05
2.467179774999999964e+00,2.413850531999999948e+05
2.467697381999999884e+00,2.413675522000000055e+05
2.468214988999999804e+00,2.413493949999999895e+05
2.468732595000000085e+00,2.413316060999999754e+05
2.469250202000000005e+00,2.413151202999999805e+05
2.469767808999999925e+00,2.413008840999999957e+05
2.470285177000000054e+00,2.412886087999999872e+05
2.470802783999999974e+00,2.412791166000000085e+05
2.471320390999999894e+00,2.412702609000000230e+05
2.471837997000000176e+00,2.412621116999999795e+05
2.472355604000000096e+00,2.412527167999999947e+05
2.472873211000000016e+00,2.412403135999999940e+05
2.473390579000000145e+00,2.412228019999999960e+05
2.473908186000000065e+00,2.411981031000000075e+05
2.474425792999999985e+00,2.411646107999999949e+05
2.474943398999999822e+00,2.411219102999999886e+05
2.475461006000000186e+00,2.410707212000000000e+05
2.475978613000000106e+00,2.410130603999999876e+05
2.476495980999999791e+00,2.409517294999999867e+05
2.477013588000000155e+00,2.408897653999999748e+05
2.477531195000000075e+00,2.408299981000000262e+05
2.478048800999999912e+00,2.407745266999999876e+05
2.478566407999999832e+00,2.407247380000000121e+05
2.479084015000000196e+00,2.406812223999999987e+05
2.479601382999999881e+00,2.406438018000000156e+05
