x(m),wallHeatFlux(W/m2)
6.619999999999999637e-05,5.976036089999999851e+06
1.630000000000000047e-04,3.360217358000000007e+06
2.840000000000000185e-04,2.369142015999999829e+06
4.249999999999999763e-04,1.858131702000000048e+06
5.869999999999999567e-04,1.526740959999999963e+06
7.730000000000000326e-04,1.297945452999999980e+06
9.879999999999999460e-04,1.128013611000000034e+06
1.235161000000000028e-03,9.964493924999999581e+05
1.548331000000000013e-03,8.838814366000000155e+05
1.821298999999999965e-03,8.106780683000000427e+05
2.019397000000000032e-03,7.668842650000000140e+05
2.217526000000000046e-03,7.279768116999999620e+05
2.415679000000000003e-03,6.963725833000000566e+05
2.613850999999999935e-03,6.691363336999999592e+05
2.812036999999999870e-03,6.474327288999999873e+05
3.010234999999999994e-03,6.265725540999999503e+05
3.209679999999999912e-03,6.100159176999999909e+05
3.407846999999999873e-03,5.944727502000000095e+05
3.604879000000000069e-03,5.797195402999999933e+05
3.803106000000000108e-03,5.669335912000000244e+05
4.001338000000000117e-03,5.558486237999999430e+05
4.199572999999999848e-03,5.449619176000000443e+05
4.397813000000000416e-03,5.356527746999999508e+05
4.596054999999999932e-03,5.264491348999999464e+05
4.794299999999999604e-03,5.188060485999999801e+05
4.992548000000000298e-03,5.119433131000000285e+05
5.190796999999999599e-03,5.062632642999999807e+05
5.389047999999999582e-03,5.011705800000000163e+05
5.587301000000000246e-03,4.966650750000000116e+05
5.784804000000000161e-03,4.927166452000000281e+05
5.983076000000000366e-03,4.891748477999999886e+05
6.182069000000000106e-03,4.860440422999999719e+05
6.380326999999999874e-03,4.833958305999999866e+05
6.578585999999999982e-03,4.811381243999999715e+05
6.776846000000000432e-03,4.790503180000000284e+05
6.975106000000000014e-03,4.770229907000000239e+05
7.173368000000000279e-03,4.755336121000000276e+05
7.371629999999999676e-03,4.737022366000000038e+05
7.569893000000000281e-03,4.715545287000000244e+05
7.768157000000000360e-03,4.701219712000000291e+05
7.966420999999999572e-03,4.680488787000000011e+05
8.165468999999999852e-03,4.664357286999999778e+05
8.362243000000000107e-03,4.651603393999999971e+05
8.559759999999999591e-03,4.637699432999999844e+05
8.759480999999999518e-03,4.621788263000000152e+05
8.957747999999999752e-03,4.609263565999999992e+05
9.156014000000000513e-03,4.600316300000000047e+05
9.354281000000000748e-03,4.593982074000000139e+05
9.552549000000000456e-03,4.592166940000000177e+05
9.750816000000000691e-03,4.598714795000000158e+05
9.949084000000000400e-03,4.608416771999999764e+05
1.014735200000000011e-02,4.617983283999999985e+05
1.034561999999999982e-02,4.621235804999999818e+05
1.054388900000000073e-02,4.620045025000000023e+05
1.074370699999999991e-02,4.616327719999999972e+05
1.094195700000000042e-02,4.609448552999999956e+05
1.113869600000000001e-02,4.593830836000000127e+05
1.133696499999999920e-02,4.567726325000000070e+05
1.153523499999999959e-02,4.533469268000000156e+05
1.173350499999999998e-02,4.492093820999999880e+05
1.193177500000000037e-02,4.449080027000000118e+05
1.213004500000000076e-02,4.416587994000000181e+05
1.232831499999999941e-02,4.392000516000000061e+05
1.252658499999999980e-02,4.370609797999999719e+05
1.272485599999999967e-02,4.349982331000000122e+05
1.292312600000000006e-02,4.329104630999999936e+05
1.312139699999999992e-02,4.308613903000000282e+05
1.332027700000000016e-02,4.288856106000000145e+05
1.351854199999999971e-02,4.271631930000000284e+05
1.371620999999999951e-02,4.255298372000000090e+05
1.391448099999999938e-02,4.242381218000000226e+05
1.411275199999999924e-02,4.231633127000000095e+05
1.431102300000000084e-02,4.221609204000000027e+05
1.450929500000000018e-02,4.211219935999999871e+05
1.470756600000000004e-02,4.199828755000000237e+05
1.490583799999999938e-02,4.187488616000000038e+05
1.510410899999999924e-02,4.174557037000000128e+05
1.530238100000000032e-02,4.162441545000000042e+05
1.550065299999999965e-02,4.151175450999999885e+05
1.569892499999999899e-02,4.139948032000000239e+05
1.589584100000000083e-02,4.128824812999999849e+05
1.609412400000000132e-02,4.119718753000000142e+05
1.629374100000000047e-02,4.111286623999999720e+05
1.649201299999999981e-02,4.102591462000000174e+05
1.669028499999999915e-02,4.091983384000000078e+05
1.688855699999999849e-02,4.079957102999999770e+05
1.708682900000000129e-02,4.067497909000000218e+05
1.728510200000000011e-02,4.055347747000000090e+05
1.748337399999999944e-02,4.043802842999999993e+05
1.768164700000000172e-02,4.034200484999999753e+05
1.787991900000000106e-02,4.025239315000000061e+05
1.807819199999999987e-02,4.015667658999999985e+05
1.827682799999999844e-02,4.005590699000000022e+05
1.847317600000000087e-02,3.996569900999999954e+05
1.867110099999999898e-02,3.988836448000000091e+05
1.887128199999999964e-02,3.981332383000000264e+05
1.906955499999999845e-02,3.973155778999999748e+05
1.926782800000000073e-02,3.963759665999999852e+05
1.946610000000000007e-02,3.953549565999999759e+05
1.966437299999999888e-02,3.943003677000000025e+05
1.986264600000000116e-02,3.932681202000000048e+05
2.006091899999999997e-02,3.922856804000000120e+05
2.025919199999999878e-02,3.913487337999999872e+05
2.045746500000000107e-02,3.905048862000000081e+05
2.065573799999999988e-02,3.896924617999999900e+05
2.085597399999999935e-02,3.888649822999999742e+05
2.105423500000000100e-02,3.880462386999999871e+05
2.125055699999999978e-02,3.873473596999999718e+05
2.144882999999999859e-02,3.866966557000000030e+05
2.164710300000000087e-02,3.860430154999999795e+05
2.184537599999999968e-02,3.853207527000000118e+05
2.204365000000000144e-02,3.845091380999999819e+05
2.224192300000000025e-02,3.836371104000000050e+05
2.244019599999999906e-02,3.827370979999999981e+05
2.263846900000000134e-02,3.818397178999999887e+05
2.283674299999999963e-02,3.809763104000000167e+05
2.303501599999999844e-02,3.801787383000000264e+05
2.323328900000000072e-02,3.794048544000000111e+05
2.343156299999999900e-02,3.787103508000000147e+05
2.362995400000000162e-02,3.780644163999999873e+05
2.382846400000000059e-02,3.774227932000000146e+05
2.402697399999999955e-02,3.767571329999999725e+05
2.422548399999999852e-02,3.760807906000000075e+05
2.442536000000000013e-02,3.754842958000000217e+05
2.462386299999999931e-02,3.749487882000000100e+05
2.482101299999999941e-02,3.744194427000000142e+05
2.501952299999999837e-02,3.738412150999999722e+05
2.521803300000000081e-02,3.731890950999999768e+05
2.541818399999999992e-02,3.724627347999999765e+05
2.561668599999999962e-02,3.716969011000000173e+05
2.581356300000000117e-02,3.709062979000000050e+05
2.601207300000000014e-02,3.700992003999999724e+05
2.621058199999999963e-02,3.693083184999999939e+05
2.640909199999999860e-02,3.685612584999999963e+05
2.660760200000000103e-02,3.678753192999999737e+05
2.680611200000000000e-02,3.672160429000000004e+05
2.700462199999999896e-02,3.666423118999999715e+05
2.720313200000000139e-02,3.661186749999999884e+05
2.740164200000000036e-02,3.656051822999999858e+05
2.760015199999999932e-02,3.650740268999999971e+05
2.779866300000000123e-02,3.645326934999999939e+05
2.799717300000000020e-02,3.640458057000000263e+05
2.819568299999999916e-02,3.636109724000000278e+05
2.839419300000000160e-02,3.631833646999999764e+05
2.859270300000000056e-02,3.627268803000000189e+05
2.879121299999999953e-02,3.622163948000000091e+05
2.898972299999999849e-02,3.616561669000000111e+05
2.918823300000000093e-02,3.610661243999999715e+05
2.938674299999999989e-02,3.604626762999999919e+05
2.958525399999999833e-02,3.598566781000000192e+05
2.978376400000000077e-02,3.592546435000000056e+05
2.998227399999999973e-02,3.586630216999999830e+05
3.018078399999999870e-02,3.580898315999999759e+05
3.037929400000000113e-02,3.575556500000000233e+05
3.057780400000000010e-02,3.570567007999999914e+05
3.077631499999999853e-02,3.565732596999999951e+05
3.097482500000000097e-02,3.561001772999999812e+05
3.117333499999999993e-02,3.556562445999999763e+05
3.137184500000000237e-02,3.552253007000000216e+05
3.157035600000000081e-02,3.547890678000000189e+05
3.176886599999999977e-02,3.543438550999999861e+05
3.196487499999999676e-02,3.539082084000000032e+05
3.216339599999999688e-02,3.535137658999999985e+05
3.236439700000000308e-02,3.531566181000000215e+05
3.256290700000000204e-02,3.528080989999999874e+05
3.276141700000000101e-02,3.524303919999999925e+05
3.295879200000000064e-02,3.520042821000000113e+05
3.315730699999999698e-02,3.515261211999999941e+05
3.335694799999999738e-02,3.510080969000000041e+05
3.355545800000000328e-02,3.504705779999999795e+05
3.375396900000000172e-02,3.499233170999999857e+05
3.395270999999999706e-02,3.493767266999999993e+05
3.415121899999999655e-02,3.488409167000000016e+05
3.434949999999999809e-02,3.483215616000000155e+05
3.454800999999999706e-02,3.478208864000000176e+05
3.474652000000000296e-02,3.473467262999999803e+05
3.494662700000000094e-02,3.469079757000000100e+05
3.514513200000000254e-02,3.465006566999999923e+05
3.534205199999999880e-02,3.461074103999999934e+05
3.554056199999999777e-02,3.457180740000000224e+05
3.573907199999999673e-02,3.453465194999999949e+05
3.593936200000000247e-02,3.449857542000000249e+05
3.613786599999999766e-02,3.446296574999999721e+05
3.633460399999999951e-02,3.442718103000000119e+05
3.653311399999999848e-02,3.439183496000000159e+05
3.673162399999999744e-02,3.435890031999999774e+05
3.693013500000000282e-02,3.433043119999999763e+05
3.712864500000000179e-02,3.430272842999999993e+05
3.732715600000000022e-02,3.427380456000000122e+05
3.752566599999999919e-02,3.424120839999999735e+05
3.772417699999999763e-02,3.420368583000000217e+05
3.792268699999999659e-02,3.416201228000000119e+05
3.812119700000000250e-02,3.411780719999999856e+05
3.831970800000000094e-02,3.407241779000000097e+05
3.851821799999999990e-02,3.402664474000000046e+05
3.871672899999999834e-02,3.398093469000000041e+05
3.891523899999999730e-02,3.393562427000000025e+05
3.911375000000000268e-02,3.389113437999999733e+05
3.931226000000000165e-02,3.384774405999999726e+05
3.951077100000000009e-02,3.380572385999999824e+05
3.970928099999999905e-02,3.376538094000000274e+05
3.990779199999999749e-02,3.372733509000000195e+05
4.010630200000000339e-02,3.369216072999999742e+05
4.030481300000000183e-02,3.365898807999999844e+05
4.050332300000000080e-02,3.362646380999999819e+05
4.070183399999999924e-02,3.359404737999999779e+05
4.090034399999999820e-02,3.356212045999999973e+05
4.109885499999999664e-02,3.353153059999999823e+05
4.129736500000000254e-02,3.350204610000000102e+05
4.149587600000000098e-02,3.347296488999999710e+05
4.169438599999999995e-02,3.344448772999999928e+05
4.189289699999999839e-02,3.341699116999999969e+05
4.209140699999999735e-02,3.339239532999999938e+05
4.228991800000000273e-02,3.336963473000000231e+05
4.248615900000000251e-02,3.334724000000000233e+05
4.268467699999999726e-02,3.332285643999999738e+05
4.288544999999999857e-02,3.329507555999999749e+05
4.308395999999999754e-02,3.326380459000000264e+05
4.328247100000000291e-02,3.322908945999999996e+05
4.348007699999999892e-02,3.319233665000000037e+05
4.367859000000000325e-02,3.315423706000000238e+05
4.387800199999999928e-02,3.311574335999999894e+05
4.407651299999999772e-02,3.307759176999999909e+05
4.427502299999999669e-02,3.303981264000000083e+05
4.447399500000000228e-02,3.300242355000000098e+05
4.467250400000000177e-02,3.296581677999999956e+05
4.487055499999999947e-02,3.293003902000000235e+05
4.506906599999999791e-02,3.289493359000000055e+05
4.526757599999999687e-02,3.286064784000000218e+05
4.546791299999999869e-02,3.282715435000000289e+05
4.566641800000000029e-02,3.279557195000000065e+05
4.586310799999999965e-02,3.276604945999999763e+05
4.606161899999999809e-02,3.273823928999999771e+05
4.626012899999999706e-02,3.271105358000000124e+05
4.646055699999999955e-02,3.268349633000000031e+05
4.665906200000000115e-02,3.265619604999999865e+05
4.685566099999999984e-02,3.262946059000000241e+05
4.705417199999999828e-02,3.260339259999999776e+05
4.725268199999999724e-02,3.257828572999999742e+05
4.745119300000000262e-02,3.255371611999999732e+05
4.764970400000000106e-02,3.253005197000000044e+05
4.784821400000000002e-02,3.250771452000000281e+05
4.804672499999999846e-02,3.248813331999999937e+05
4.824523499999999743e-02,3.247048183999999892e+05
4.844374600000000280e-02,3.245307705999999889e+05
4.864225700000000124e-02,3.243481443999999901e+05
4.884076700000000021e-02,3.241421913000000059e+05
4.903927799999999865e-02,3.239055581000000238e+05
4.923778899999999709e-02,3.236341134999999776e+05
4.943629900000000299e-02,3.233341690999999992e+05
4.963481000000000143e-02,3.230166153000000049e+05
4.983332000000000039e-02,3.226911993999999831e+05
5.003183099999999883e-02,3.223644425000000047e+05
5.023034199999999727e-02,3.220390621999999858e+05
5.042885200000000318e-02,3.217158489999999874e+05
5.062736300000000161e-02,3.213953935000000056e+05
5.082587400000000005e-02,3.210789152999999933e+05
5.102438399999999902e-02,3.207678631000000169e+05
5.122289499999999746e-02,3.204636586000000243e+05
5.142140600000000283e-02,3.201661799999999930e+05
5.161991600000000180e-02,3.198742510999999940e+05
5.181842700000000024e-02,3.195862166999999899e+05
5.201489299999999955e-02,3.193078280999999843e+05
5.221340900000000229e-02,3.190347719999999972e+05
5.241395900000000302e-02,3.187719039999999804e+05
5.261247000000000146e-02,3.185261632000000100e+05
5.281098000000000042e-02,3.182905438999999897e+05
5.300745300000000299e-02,3.180605151000000187e+05
5.320596899999999879e-02,3.178243629000000074e+05
5.340651200000000320e-02,3.175850774000000092e+05
5.360502300000000164e-02,3.173525606000000262e+05
5.380353400000000008e-02,3.171290372000000207e+05
5.400137099999999940e-02,3.169180730999999796e+05
5.419988299999999731e-02,3.167139824999999837e+05
5.439906600000000286e-02,3.165168542000000016e+05
5.459757600000000183e-02,3.163318368999999948e+05
5.479608700000000027e-02,3.161619268000000156e+05
5.499528900000000275e-02,3.160140554000000120e+05
5.519379800000000225e-02,3.158730052000000142e+05
5.539161900000000305e-02,3.157302044999999925e+05
5.559013000000000149e-02,3.155754906000000192e+05
5.578864099999999993e-02,3.154011056000000099e+05
5.598920699999999917e-02,3.152007640000000247e+05
5.618771300000000024e-02,3.149766391999999760e+05
5.638417300000000271e-02,3.147279586000000127e+05
5.658268300000000167e-02,3.144589405000000261e+05
5.678119400000000011e-02,3.141817593999999808e+05
5.698175999999999936e-02,3.138996337000000058e+05
5.718026600000000043e-02,3.136236266000000178e+05
5.737672600000000289e-02,3.133533498999999720e+05
5.757523700000000133e-02,3.130843560999999754e+05
5.777374799999999977e-02,3.128195785000000033e+05
5.797225799999999873e-02,3.125593821999999927e+05
5.817076899999999717e-02,3.123045032999999821e+05
5.836928000000000255e-02,3.120552764999999781e+05
5.856779000000000152e-02,3.118119143000000040e+05
5.876630099999999995e-02,3.115739896999999764e+05
5.896481199999999839e-02,3.113401329999999725e+05
5.916332199999999736e-02,3.111091819000000251e+05
5.936183300000000274e-02,3.108810916999999899e+05
5.956034400000000117e-02,3.106576038999999873e+05
5.975885499999999961e-02,3.104409623000000138e+05
5.995736499999999858e-02,3.102328490999999922e+05
6.015587599999999702e-02,3.100345345000000088e+05
6.035438700000000239e-02,3.098444324999999953e+05
6.055289800000000083e-02,3.096570410999999731e+05
6.075140799999999980e-02,3.094678494000000064e+05
6.094991899999999824e-02,3.092736080000000075e+05
6.114842999999999668e-02,3.090775928999999887e+05
6.134694000000000258e-02,3.088845840999999782e+05
6.154545100000000102e-02,3.086982101000000257e+05
6.174396199999999946e-02,3.085203322000000044e+05
6.194247299999999790e-02,3.083497361999999848e+05
6.214098299999999686e-02,3.081883846999999951e+05
6.233949400000000224e-02,3.080401064999999944e+05
6.253609899999999777e-02,3.079059659000000102e+05
6.273461399999999411e-02,3.077889234999999753e+05
6.293502600000000502e-02,3.076775849000000162e+05
6.313353700000000346e-02,3.075671427000000258e+05
6.333204800000000190e-02,3.074489207000000170e+05
6.352875099999999442e-02,3.073183699999999953e+05
6.372726600000000463e-02,3.071672103999999817e+05
6.392757999999999774e-02,3.069941827000000048e+05
6.412609099999999618e-02,3.068028392999999924e+05
6.432460199999999462e-02,3.065928596000000252e+05
6.452267000000000419e-02,3.063684763999999850e+05
6.472118100000000263e-02,3.061335994000000064e+05
6.492013400000000434e-02,3.058937849000000278e+05
6.511864400000000330e-02,3.056533372000000090e+05
6.531715500000000174e-02,3.054133773999999976e+05
6.551658800000000060e-02,3.051732148000000161e+05
6.571509700000000009e-02,3.049363821999999927e+05
6.591268699999999758e-02,3.047028788000000059e+05
6.611119799999999602e-02,3.044713741000000155e+05
6.630970899999999446e-02,3.042440173000000068e+05
6.651050599999999702e-02,3.040174636000000173e+05
6.670901199999999809e-02,3.037984638999999734e+05
6.690524100000000418e-02,3.035848105000000214e+05
6.710375200000000262e-02,3.033716038999999873e+05
6.730226300000000106e-02,3.031600264999999781e+05
6.750077399999999950e-02,3.029487145000000019e+05
6.769928399999999846e-02,3.027361125999999931e+05
6.789779499999999690e-02,3.025218400000000256e+05
6.809630599999999534e-02,3.023070762000000104e+05
6.829481699999999378e-02,3.020937374999999884e+05
6.849332700000000662e-02,3.018848440999999875e+05
6.869183800000000506e-02,3.016823510000000242e+05
6.889034900000000350e-02,3.014868479999999981e+05
6.908886000000000194e-02,3.012949011000000173e+05
6.928737000000000090e-02,3.011029380000000237e+05
6.948588099999999934e-02,3.009073757999999798e+05
6.968439199999999778e-02,3.007075417000000016e+05
6.988290299999999622e-02,3.005052461999999941e+05
7.008141299999999518e-02,3.003031094000000157e+05
7.027992399999999362e-02,3.001029153999999980e+05
7.047843500000000594e-02,2.999069339000000036e+05
7.067694600000000438e-02,2.997174686000000220e+05
7.087545700000000282e-02,2.995382220000000088e+05
7.107396700000000178e-02,2.993721780000000144e+05
7.127247800000000022e-02,2.992189709000000148e+05
7.147098899999999866e-02,2.990846549000000232e+05
7.166949999999999710e-02,2.989606571000000113e+05
7.186800999999999606e-02,2.988372636000000057e+05
7.206652099999999450e-02,2.987070353999999934e+05
7.226503200000000682e-02,2.985634024000000209e+05
7.246354300000000526e-02,2.983977065999999759e+05
7.266205400000000370e-02,2.982095079999999725e+05
7.286056400000000266e-02,2.979985982000000076e+05
7.305730900000000083e-02,2.977705491000000038e+05
7.325582299999999769e-02,2.975259254000000074e+05
7.345609699999999798e-02,2.972719574000000139e+05
7.365460699999999694e-02,2.970154663999999757e+05
7.385311799999999538e-02,2.967541904000000213e+05
7.405005300000000457e-02,2.964908621000000276e+05
7.424856600000000195e-02,2.962213820999999880e+05
7.444865100000000457e-02,2.959479125999999815e+05
7.464716100000000354e-02,2.956748804000000237e+05
7.484567200000000198e-02,2.954025127000000211e+05
7.504397100000000098e-02,2.951326702999999980e+05
7.524248199999999942e-02,2.948656686999999802e+05
7.544120499999999729e-02,2.946024518999999855e+05
7.563971499999999626e-02,2.943437898999999743e+05
7.583822599999999470e-02,2.940894006999999983e+05
7.603788899999999740e-02,2.938366766000000061e+05
7.623639799999999689e-02,2.935886611000000266e+05
7.643375800000000442e-02,2.933432545999999857e+05
7.663226900000000286e-02,2.930963938000000198e+05
7.683078000000000130e-02,2.928484689999999828e+05
7.703180699999999381e-02,2.925951931999999797e+05
7.723031399999999436e-02,2.923461276000000071e+05
7.742631199999999714e-02,2.921010087000000058e+05
7.762482299999999558e-02,2.918566081000000122e+05
7.782333399999999402e-02,2.916174114999999874e+05
7.802184500000000633e-02,2.913835773000000045e+05
7.822035600000000477e-02,2.911530533000000287e+05
7.841886600000000374e-02,2.909231741000000038e+05
7.861737700000000217e-02,2.906909365000000107e+05
7.881588800000000061e-02,2.904550576000000001e+05
7.901439899999999905e-02,2.902169608000000007e+05
