x(m),wallP(Pa)
2.250128098999999882e+00,2.693744556999999986e+03
2.250326609000000033e+00,2.770633860999999797e+03
2.250525119999999824e+00,2.871143206000000191e+03
2.250725418000000033e+00,2.975031260000000202e+03
2.250923928999999823e+00,3.084853423999999904e+03
2.251120653000000082e+00,3.189921365000000151e+03
2.251319163999999873e+00,3.293733254000000215e+03
2.251517675000000107e+00,3.392139474000000064e+03
2.251718078000000123e+00,3.486349747000000207e+03
2.251916588999999913e+00,3.576120862000000216e+03
2.252113207999999922e+00,3.659758615000000191e+03
2.252311718000000074e+00,3.743530646000000161e+03
2.252510228999999864e+00,3.824037314000000151e+03
2.252708740000000098e+00,3.903637395000000197e+03
2.252907250999999889e+00,3.981267878999999994e+03
2.253105762000000123e+00,4.057307408000000123e+03
2.253304272999999913e+00,4.130956613999999718e+03
2.253502784000000148e+00,4.202615877999999611e+03
2.253701294999999938e+00,4.272142802999999731e+03
2.253899806000000172e+00,4.339225846000000274e+03
2.254098316999999962e+00,4.404592169999999896e+03
2.254296827000000114e+00,4.467640467000000172e+03
2.254495337999999904e+00,4.529176430999999866e+03
2.254693849000000139e+00,4.588681647999999768e+03
2.254892359999999929e+00,4.646703911999999946e+03
2.255090871000000163e+00,4.702971112999999605e+03
2.255289381999999954e+00,4.757893043000000034e+03
2.255487893000000188e+00,4.811264769999999771e+03
2.255686403999999978e+00,4.863262255999999979e+03
2.255884915000000213e+00,4.914144749000000047e+03
2.256083426000000003e+00,4.963643629000000146e+03
2.256281936999999793e+00,5.012194069000000127e+03
2.256480446999999945e+00,5.059542328000000452e+03
2.256678958000000179e+00,5.106017698999999993e+03
2.256877468999999969e+00,5.151172317999999905e+03
2.257075980000000204e+00,5.195891783000000032e+03
2.257272427000000192e+00,5.238817403000000013e+03
2.257470937999999983e+00,5.280948867000000064e+03
2.257671513000000019e+00,5.324110611000000063e+03
2.257870023999999809e+00,5.364277046000000155e+03
2.258068535000000043e+00,5.405146501999999600e+03
2.258264973999999814e+00,5.443828281000000061e+03
2.258463485000000048e+00,5.482381594000000405e+03
2.258664067000000220e+00,5.521540947999999844e+03
2.258862578000000010e+00,5.558440577999999732e+03
2.259061088999999800e+00,5.595639154999999846e+03
2.259258890999999991e+00,5.631571208999999726e+03
2.259457401999999782e+00,5.667269166000000041e+03
2.259656622000000059e+00,5.702729855999999927e+03
2.259855132999999849e+00,5.737284171999999671e+03
2.260053644000000084e+00,5.771394870000000083e+03
2.260252808999999807e+00,5.805122862000000168e+03
2.260451320000000042e+00,5.838446565000000192e+03
2.260649175999999816e+00,5.870759613999999601e+03
2.260847687000000050e+00,5.903342300999999679e+03
2.261046197999999841e+00,5.934849666000000070e+03
2.261246725999999985e+00,5.966805470999999670e+03
2.261445237000000219e+00,5.998030848000000333e+03
2.261641731000000100e+00,6.027826057000000219e+03
2.261840241999999890e+00,6.058671956000000137e+03
2.262038753000000124e+00,6.088141378999999688e+03
2.262239295000000094e+00,6.118336607999999615e+03
2.262437805999999885e+00,6.147670455999999831e+03
2.262634284999999856e+00,6.175945252999999866e+03
2.262832796000000091e+00,6.204943626999999651e+03
2.263031306999999881e+00,6.233187433000000055e+03
2.263229818000000115e+00,6.261435967999999775e+03
2.263428328999999906e+00,6.289291505999999572e+03
2.263626840000000140e+00,6.316989192000000003e+03
2.263825350999999930e+00,6.344407860999999684e+03
2.264023862000000165e+00,6.371663502999999764e+03
2.264222372999999955e+00,6.398665237000000161e+03
2.264420884000000189e+00,6.425457926000000043e+03
2.264619393999999897e+00,6.452002027000000453e+03
2.264817905000000131e+00,6.478308078000000023e+03
2.265016415999999921e+00,6.504340312000000267e+03
2.265214927000000156e+00,6.530103930000000219e+03
2.265413437999999946e+00,6.555588044000000082e+03
2.265611949000000180e+00,6.580767942000000403e+03
2.265810459999999971e+00,6.605662167000000409e+03
2.266008971000000205e+00,6.630237995999999839e+03
2.266207481999999995e+00,6.654451154000000315e+03
2.266405992999999786e+00,6.678339356999999836e+03
2.266604502999999937e+00,6.701794012999999723e+03
2.266803014000000172e+00,6.724944002999999611e+03
2.267001524999999962e+00,6.747628356999999596e+03
2.267200036000000196e+00,6.770043359999999666e+03
2.267398546999999986e+00,6.791865297000000282e+03
2.267597058000000221e+00,6.813563313999999991e+03
2.267793643000000081e+00,6.834320668999999725e+03
2.267992153999999871e+00,6.854878157000000101e+03
2.268192591000000036e+00,6.875594105999999556e+03
2.268391101999999826e+00,6.895123980999999731e+03
2.268589611999999978e+00,6.914698760000000220e+03
2.268786282000000210e+00,6.933352955999999722e+03
2.268984793000000000e+00,6.951805053000000044e+03
2.269185144999999793e+00,6.970341956000000209e+03
2.269383656000000027e+00,6.987903024999999616e+03
2.269582166999999817e+00,7.005394210000000385e+03
2.269780198999999943e+00,7.022318009999999958e+03
2.269978710000000177e+00,7.039031549000000268e+03
2.270177700000000076e+00,7.055529604999999719e+03
2.270376210999999866e+00,7.071721700000000055e+03
2.270574721000000018e+00,7.087686649999999645e+03
2.270774117000000203e+00,7.103617755000000216e+03
2.270972627999999993e+00,7.119379576000000270e+03
2.271170253999999833e+00,7.134791830999999547e+03
2.271368765000000067e+00,7.150511093000000074e+03
2.271567275999999858e+00,7.165915447000000313e+03
2.271768035000000019e+00,7.181841873999999734e+03
2.271966545000000171e+00,7.197590702999999849e+03
2.272162809000000117e+00,7.213008381999999983e+03
2.272361319999999907e+00,7.229106682999999975e+03
2.272559831000000141e+00,7.245135073000000375e+03
2.272758340999999849e+00,7.261438535000000229e+03
2.272956852000000083e+00,7.277883047999999690e+03
2.273155362999999873e+00,7.294540807999999743e+03
2.273353874000000108e+00,7.311380216999999902e+03
2.273552384999999898e+00,7.328407646999999997e+03
2.273750896000000132e+00,7.345593977000000450e+03
2.273949406999999923e+00,7.362942038000000139e+03
2.274147918000000157e+00,7.380407846000000063e+03
2.274346428999999947e+00,7.397972931000000244e+03
2.274544940000000182e+00,7.415603419000000031e+03
2.274743449999999889e+00,7.433269153999999617e+03
2.274941961000000124e+00,7.450945529999999962e+03
2.275140471999999914e+00,7.468596494999999777e+03
2.275338983000000148e+00,7.486206489999999576e+03
2.275537493999999938e+00,7.503734414999999899e+03
2.275736005000000173e+00,7.521181368999999904e+03
2.275934515999999963e+00,7.538524639999999636e+03
2.276133027000000197e+00,7.555761497999999847e+03
2.276331537999999988e+00,7.572874789000000419e+03
2.276530049000000222e+00,7.589860200000000077e+03
2.276728558999999930e+00,7.606714876000000004e+03
2.276927070000000164e+00,7.623446904000000359e+03
2.277125580999999954e+00,7.640052657000000181e+03
2.277324092000000189e+00,7.656560519999999997e+03
2.277522602999999979e+00,7.672943952999999965e+03
2.277721114000000213e+00,7.689287339000000429e+03
2.277919625000000003e+00,7.705452631000000110e+03
2.278118135999999794e+00,7.721715294999999969e+03
2.278314860000000053e+00,7.737583921000000373e+03
2.278513370999999843e+00,7.753577712000000247e+03
2.278713667999999970e+00,7.769906066999999894e+03
2.278912179000000204e+00,7.785731878999999935e+03
2.279110689999999995e+00,7.801812484000000040e+03
2.279307590000000161e+00,7.817512383999999656e+03
2.279506100999999951e+00,7.833368070999999873e+03
2.279706222999999810e+00,7.849503701999999976e+03
2.279904734000000044e+00,7.865246076000000357e+03
2.280103244999999834e+00,7.881106905999999981e+03
2.280301506999999894e+00,7.896820504999999685e+03
2.280500018000000129e+00,7.912549238999999943e+03
2.280698778000000093e+00,7.928238159999999880e+03
2.280897287999999801e+00,7.943864849999999933e+03
2.281095799000000035e+00,7.959365687999999864e+03
2.281295425000000154e+00,7.974988220000000183e+03
2.281493935999999945e+00,7.990456787000000077e+03
2.281691331999999850e+00,8.005608492999999726e+03
2.281889843000000084e+00,8.021025230000000192e+03
2.282088353999999875e+00,8.036106819999999971e+03
2.282289342999999970e+00,8.051581753000000390e+03
2.282487853000000122e+00,8.066749966999999742e+03
2.282683887000000134e+00,8.081464297999999872e+03
2.282882396999999841e+00,8.096641451000000416e+03
2.283080908000000075e+00,8.111616164000000026e+03
2.283279418999999866e+00,8.126650241999999707e+03
2.283477930000000100e+00,8.141658051000000341e+03
2.283676440999999890e+00,8.156695910999999796e+03
2.283874952000000125e+00,8.171755618000000140e+03
2.284073462999999915e+00,8.186855851999999686e+03
2.284271974000000149e+00,8.202003086999999141e+03
2.284470484999999940e+00,8.217208443999999872e+03
2.284668996000000174e+00,8.232478063000000475e+03
2.284867505999999882e+00,8.247818197000000509e+03
2.285066017000000116e+00,8.263231658999999127e+03
2.285264527999999906e+00,8.278722184000000198e+03
2.285463039000000141e+00,8.294285254000000350e+03
2.285661549999999931e+00,8.309926713000000746e+03
2.285860061000000165e+00,8.325624997999999323e+03
2.286058571999999955e+00,8.341401326999999583e+03
2.286257083000000190e+00,8.357218761000000086e+03
2.286455593999999980e+00,8.373077740000000631e+03
2.286654105000000214e+00,8.388969603999999890e+03
2.286852614999999922e+00,8.404878856999999698e+03
2.287051126000000156e+00,8.420794472999999925e+03
2.287249636999999947e+00,8.436695850000000064e+03
2.287448148000000181e+00,8.452579166999999870e+03
2.287646658999999971e+00,8.468410433999999441e+03
2.287845170000000206e+00,8.484203214999999545e+03
2.288043680999999996e+00,8.499902933999999732e+03
2.288242191999999786e+00,8.515566914999999426e+03
2.288440703000000020e+00,8.531061820999999327e+03
2.288639213999999811e+00,8.546587113999999929e+03
2.288836075999999942e+00,8.561713042999999743e+03
2.289034587000000176e+00,8.576863761000000522e+03
2.289234745999999987e+00,8.592166380999999092e+03
2.289433257000000221e+00,8.606962786000000051e+03
2.289631768000000012e+00,8.621794184000000314e+03
2.289828898000000112e+00,8.636211208000000624e+03
2.290027408999999903e+00,8.650585608999999749e+03
2.290227300999999827e+00,8.664990179000000353e+03
2.290425812000000061e+00,8.678971606999999494e+03
2.290624322999999851e+00,8.692835882999999740e+03
2.290822814999999846e+00,8.706469135999999708e+03
2.291021326000000080e+00,8.719928969000000507e+03
2.291219855000000027e+00,8.733158718999999110e+03
2.291418365999999818e+00,8.746232405000000654e+03
2.291616877000000052e+00,8.759018492999999580e+03
2.291816733000000106e+00,8.771776316999999835e+03
2.292015243999999896e+00,8.784241695000000618e+03
2.292212409999999867e+00,8.796300585000000865e+03
2.292410921000000101e+00,8.808428841999999349e+03
2.292609431999999892e+00,8.820205488999999943e+03
2.292809569000000103e+00,8.832017831999999544e+03
2.293008079999999893e+00,8.843527154999999766e+03
2.293204964000000068e+00,8.854651584999999614e+03
2.293403474999999858e+00,8.865835574999999153e+03
2.293601986000000093e+00,8.876776278999999704e+03
2.293800496999999883e+00,8.887576412000000346e+03
2.293999008000000117e+00,8.898209706999999980e+03
2.294197518999999907e+00,8.908689894999999524e+03
2.294396030000000142e+00,8.919018690000000788e+03
2.294594540999999932e+00,8.929200806000000739e+03
2.294793052000000166e+00,8.939244484999999258e+03
2.294991561999999874e+00,8.949152474000000439e+03
2.295190073000000108e+00,8.958933672999999544e+03
2.295388583999999899e+00,8.968594499000000724e+03
2.295587095000000133e+00,8.978143027000000075e+03
2.295785605999999923e+00,8.987581516000000192e+03
2.295984117000000158e+00,8.996912497999999687e+03
2.296182627999999948e+00,9.006138116000000082e+03
2.296381139000000182e+00,9.015264019000000189e+03
2.296579649999999972e+00,9.024293116000000737e+03
2.296778161000000207e+00,9.033231154999999490e+03
2.296976670999999914e+00,9.042081097000000227e+03
2.297175182000000149e+00,9.050848490000000311e+03
2.297373692999999939e+00,9.059535581000000093e+03
2.297572204000000173e+00,9.068148327999999310e+03
2.297770714999999964e+00,9.076689400999999634e+03
2.297969226000000198e+00,9.085165651999999682e+03
2.298167736999999988e+00,9.093575709000000643e+03
2.298366247999999779e+00,9.101934033999999883e+03
2.298564759000000013e+00,9.110225205999999162e+03
2.298763269999999803e+00,9.118489900000000489e+03
2.298961781000000038e+00,9.126660883000000467e+03
2.299160291000000189e+00,9.134882842000000892e+03
2.299356287999999804e+00,9.142866025999999692e+03
2.299554799000000038e+00,9.150900868000000628e+03
2.299755824000000004e+00,9.159198984000000564e+03
2.299954334999999794e+00,9.167160922999999457e+03
2.300152846000000029e+00,9.175253688999999213e+03
2.300350206000000064e+00,9.183201288000000204e+03
2.300548716999999854e+00,9.191205783999999767e+03
2.300748378999999844e+00,9.199332297000000835e+03
2.300946890000000078e+00,9.207337900000000445e+03
2.301145399999999785e+00,9.215396579000000202e+03
2.301344122999999797e+00,9.223477335999999923e+03
2.301542634000000032e+00,9.231585408000000825e+03
2.301740933000000044e+00,9.239690692000000126e+03
2.301939443999999835e+00,9.247885448999999426e+03
2.302137955000000069e+00,9.256058168999999907e+03
2.302338041000000057e+00,9.264422518999999738e+03
2.302536551999999848e+00,9.272767724999999700e+03
2.302733487999999884e+00,9.281001610999999684e+03
2.302931999000000118e+00,9.289508912999999666e+03
2.303130508999999826e+00,9.297956217000000834e+03
2.303330784999999992e+00,9.306661786999999094e+03
2.303529295999999782e+00,9.315343179999999847e+03
2.303726042000000085e+00,9.323931255999999848e+03
2.303924552999999875e+00,9.332805861000000732e+03
2.304123064000000110e+00,9.341695077000000310e+03
2.304321574999999900e+00,9.350698711999999432e+03
2.304520086000000134e+00,9.359783369999999195e+03
2.304718596999999924e+00,9.368964099000000715e+03
2.304917108000000159e+00,9.378242420000000493e+03
2.305115617999999866e+00,9.387614072000000306e+03
2.305314129000000101e+00,9.397079834000000119e+03
2.305512639999999891e+00,9.406640079999999216e+03
2.305711151000000125e+00,9.416293988999999783e+03
2.305909661999999916e+00,9.426041234000000259e+03
2.306108173000000150e+00,9.435879644000000553e+03
2.306306683999999940e+00,9.445807283000000098e+03
2.306505195000000175e+00,9.455821590999999898e+03
2.306703705999999965e+00,9.465919782000000851e+03
2.306902217000000199e+00,9.476098276999999143e+03
2.307100727999999989e+00,9.486353343999999197e+03
2.307299238000000141e+00,9.496681902000000264e+03
2.307497748999999931e+00,9.507079087000000072e+03
2.307696260000000166e+00,9.517540983999999298e+03
2.307894770999999956e+00,9.528063575000000128e+03
2.308093282000000190e+00,9.538642244999999093e+03
2.308291792999999981e+00,9.549271169999999984e+03
2.308490304000000215e+00,9.559946985000000495e+03
2.308688815000000005e+00,9.570660035000000789e+03
2.308887325999999796e+00,9.581413522999999259e+03
2.309085837000000030e+00,9.592190946000000622e+03
2.309284347000000182e+00,9.603014870000000883e+03
2.309482857999999972e+00,9.613804324999999153e+03
2.309681369000000206e+00,9.624714974000000439e+03
2.309877596000000199e+00,9.635391192999999475e+03
2.310076106999999990e+00,9.646217952999999397e+03
2.310276902000000021e+00,9.657308945000000676e+03
2.310475412999999811e+00,9.668107883999999103e+03
2.310673924000000046e+00,9.679015401000000566e+03
2.310871514000000015e+00,9.689791052000000491e+03
2.311070024999999806e+00,9.700624880999999732e+03
2.311269456000000222e+00,9.711542201000000205e+03
2.311467967000000012e+00,9.722341549000000668e+03
2.311666477999999803e+00,9.733130864999999176e+03
2.311865431000000193e+00,9.743933979999999792e+03
2.312063941999999983e+00,9.754696331999999529e+03
2.312262011000000062e+00,9.765366530999999668e+03
2.312460521999999852e+00,9.776096023000000059e+03
2.312659033000000086e+00,9.786708279000000402e+03
2.312859349000000009e+00,9.797485929000000397e+03
2.313057859999999799e+00,9.808116276000000653e+03
2.313254564999999818e+00,9.818511028000000806e+03
2.313453076000000053e+00,9.829116674000000785e+03
2.313651586999999843e+00,9.839549136999999973e+03
2.313852001999999963e+00,9.850167344999999841e+03
2.314050513000000198e+00,9.860617140000000290e+03
2.314247120000000102e+00,9.870838117999999668e+03
2.314445630999999892e+00,9.881239207000000533e+03
2.314644142000000127e+00,9.891539692000000286e+03
2.314842652999999917e+00,9.901819015999999465e+03
2.315041164000000151e+00,9.912053074999999808e+03
2.315239674999999941e+00,9.922249431000000186e+03
2.315438185000000093e+00,9.932405301000000691e+03
2.315636695999999883e+00,9.942520895999999993e+03
2.315835207000000118e+00,9.952595508000000336e+03
2.316033717999999908e+00,9.962628333000000566e+03
2.316232229000000142e+00,9.972619690999999875e+03
2.316430739999999933e+00,9.982567865000000893e+03
2.316629251000000167e+00,9.992472744000000603e+03
2.316827761999999957e+00,1.000233410000000003e+04
2.317026273000000192e+00,1.001215106999999989e+04
2.317224783999999982e+00,1.002192265000000043e+04
2.317423294000000134e+00,1.003164818999999989e+04
2.317621804999999924e+00,1.004132610999999997e+04
2.317820316000000158e+00,1.005095453000000089e+04
2.318018826999999948e+00,1.006053463999999985e+04
2.318217338000000183e+00,1.007006076000000030e+04
2.318415848999999973e+00,1.007954077999999936e+04
2.318614360000000207e+00,1.008895741000000089e+04
2.318812870999999998e+00,1.009834157000000050e+04
2.319011381999999788e+00,1.010763414999999986e+04
2.319209893000000022e+00,1.011694529999999941e+04
2.319406349999999950e+00,1.012602691000000050e+04
2.319604861000000184e+00,1.013513700000000063e+04
2.319805425000000199e+00,1.014440632999999980e+04
2.320003935999999989e+00,1.015337139999999999e+04
2.320202446999999779e+00,1.016239553999999953e+04
2.320398904000000151e+00,1.017117082999999911e+04
2.320597414999999941e+00,1.017996879000000081e+04
2.320797980000000038e+00,1.018890187999999944e+04
2.320996490999999828e+00,1.019755515999999989e+04
2.321195002000000063e+00,1.020620629999999983e+04
2.321392821999999967e+00,1.021471935999999914e+04
2.321591333000000201e+00,1.022319263999999930e+04
2.321790533999999795e+00,1.023165098000000035e+04
2.321989045000000029e+00,1.023998303999999916e+04
2.322187555999999820e+00,1.024823521000000073e+04
2.322386739000000144e+00,1.025645514999999978e+04
2.322585249999999935e+00,1.026458439999999973e+04
2.322783089000000079e+00,1.027256362000000081e+04
2.322981599999999869e+00,1.028055614000000060e+04
2.323180111000000103e+00,1.028840251999999964e+04
2.323380656999999960e+00,1.029631846000000041e+04
2.323579168000000195e+00,1.030408836999999949e+04
2.323775642999999835e+00,1.031160128000000077e+04
2.323974154000000070e+00,1.031924366999999984e+04
2.324172664999999860e+00,1.032671145000000070e+04
2.324373217999999852e+00,1.033425060999999914e+04
2.324571729000000087e+00,1.034164583999999923e+04
2.324768198000000119e+00,1.034880037000000084e+04
2.324966708999999909e+00,1.035605275000000074e+04
2.325165220000000144e+00,1.036318759999999929e+04
2.325363730999999934e+00,1.037025921999999991e+04
2.325562241000000085e+00,1.037725556999999935e+04
2.325760751999999876e+00,1.038418109000000004e+04
2.325959263000000110e+00,1.039103551999999945e+04
2.326157773999999900e+00,1.039781991999999991e+04
2.326356285000000135e+00,1.040453397000000041e+04
2.326554795999999925e+00,1.041117770000000019e+04
2.326753307000000159e+00,1.041775014999999985e+04
2.326951817999999950e+00,1.042425080999999955e+04
2.327150329000000184e+00,1.043067935000000034e+04
2.327348839999999974e+00,1.043703513999999996e+04
2.327547350000000126e+00,1.044331766000000061e+04
2.327745860999999916e+00,1.044952666999999929e+04
2.327944372000000151e+00,1.045566187999999966e+04
2.328142882999999941e+00,1.046172318000000087e+04
2.328341394000000175e+00,1.046771006999999918e+04
2.328539904999999965e+00,1.047362335999999959e+04
2.328738416000000200e+00,1.047946126999999979e+04
2.328936926999999990e+00,1.048522732999999971e+04
2.329135437999999780e+00,1.049091487000000052e+04
