x(m),wallHeatFlux(W/m2)
2.350459999999999994e+00,7.428569999999999709e+04
2.351119999999999877e+00,7.428210000000000582e+04
2.351780000000000204e+00,7.427930000000000291e+04
2.352449999999999708e+00,7.427700000000000000e+04
2.353110000000000035e+00,7.427460000000000582e+04
2.353769999999999918e+00,7.427180000000000291e+04
2.354429999999999801e+00,7.426869999999999709e+04
2.355099999999999749e+00,7.426510000000000582e+04
2.355760000000000076e+00,7.426100000000000000e+04
2.356419999999999959e+00,7.425680000000000291e+04
2.357079999999999842e+00,7.425269999999999709e+04
2.357750000000000234e+00,7.424869999999999709e+04
2.358410000000000117e+00,7.424489999999999418e+04
2.359070000000000000e+00,7.424200000000000000e+04
2.359729999999999883e+00,7.423960000000000582e+04
2.360400000000000276e+00,7.423719999999999709e+04
2.361060000000000159e+00,7.423460000000000582e+04
2.361720000000000041e+00,7.423139999999999418e+04
2.362380000000000368e+00,7.422789999999999418e+04
2.363050000000000317e+00,7.422419999999999709e+04
2.363710000000000200e+00,7.422050000000000000e+04
2.364370000000000083e+00,7.421669999999999709e+04
2.365030000000000410e+00,7.421300000000000000e+04
2.365699999999999914e+00,7.420910000000000582e+04
2.366360000000000241e+00,7.420560000000000582e+04
2.367020000000000124e+00,7.420289999999999418e+04
2.367690000000000072e+00,7.420069999999999709e+04
2.368349999999999955e+00,7.419819999999999709e+04
2.369010000000000282e+00,7.419539999999999418e+04
2.369670000000000165e+00,7.419219999999999709e+04
2.370340000000000114e+00,7.418889999999999418e+04
2.370999999999999996e+00,7.418530000000000291e+04
2.371659999999999879e+00,7.418160000000000582e+04
2.372320000000000206e+00,7.417789999999999418e+04
2.372989999999999711e+00,7.417410000000000582e+04
2.373650000000000038e+00,7.417060000000000582e+04
2.374309999999999921e+00,7.416789999999999418e+04
2.374969999999999803e+00,7.416560000000000582e+04
2.375639999999999752e+00,7.416319999999999709e+04
2.376300000000000079e+00,7.416039999999999418e+04
2.376959999999999962e+00,7.415739999999999418e+04
2.377619999999999845e+00,7.415410000000000582e+04
2.378289999999999793e+00,7.415060000000000582e+04
2.378949999999999676e+00,7.414700000000000000e+04
2.379610000000000003e+00,7.414300000000000000e+04
2.380269999999999886e+00,7.413850000000000000e+04
2.380940000000000278e+00,7.413419999999999709e+04
2.381600000000000161e+00,7.413130000000000291e+04
2.382260000000000488e+00,7.412919999999999709e+04
2.382919999999999927e+00,7.412650000000000000e+04
2.383590000000000320e+00,7.412339999999999418e+04
2.384250000000000203e+00,7.412039999999999418e+04
2.384910000000000085e+00,7.411739999999999418e+04
2.385580000000000034e+00,7.411369999999999709e+04
2.386239999999999917e+00,7.410969999999999709e+04
2.386900000000000244e+00,7.410610000000000582e+04
2.387560000000000127e+00,7.410269999999999709e+04
2.388230000000000075e+00,7.409869999999999709e+04
2.388889999999999958e+00,7.409489999999999418e+04
2.389550000000000285e+00,7.409230000000000291e+04
2.390210000000000168e+00,7.409030000000000291e+04
2.390880000000000116e+00,7.408769999999999709e+04
2.391539999999999999e+00,7.408469999999999709e+04
2.392199999999999882e+00,7.408180000000000291e+04
2.392860000000000209e+00,7.407880000000000291e+04
2.393530000000000157e+00,7.407519999999999709e+04
2.394190000000000040e+00,7.407139999999999418e+04
2.394849999999999923e+00,7.406789999999999418e+04
2.395510000000000250e+00,7.406450000000000000e+04
2.396179999999999755e+00,7.406089999999999418e+04
2.396840000000000082e+00,7.405780000000000291e+04
2.397499999999999964e+00,7.405560000000000582e+04
2.398159999999999847e+00,7.405330000000000291e+04
2.398829999999999796e+00,7.405039999999999418e+04
2.399489999999999679e+00,7.404719999999999709e+04
2.400150000000000006e+00,7.404410000000000582e+04
2.400809999999999889e+00,7.404089999999999418e+04
2.401480000000000281e+00,7.403719999999999709e+04
2.402139999999999720e+00,7.403319999999999709e+04
2.402800000000000047e+00,7.402960000000000582e+04
2.403459999999999930e+00,7.402639999999999418e+04
2.404130000000000322e+00,7.402350000000000000e+04
2.404790000000000205e+00,7.402060000000000582e+04
2.405450000000000088e+00,7.401739999999999418e+04
2.406120000000000037e+00,7.401439999999999418e+04
2.406780000000000364e+00,7.401150000000000000e+04
2.407440000000000246e+00,7.400789999999999418e+04
2.408100000000000129e+00,7.400400000000000000e+04
2.408770000000000078e+00,7.400039999999999418e+04
2.409429999999999961e+00,7.399700000000000000e+04
2.410090000000000288e+00,7.399319999999999709e+04
2.410750000000000171e+00,7.398910000000000582e+04
2.411420000000000119e+00,7.398589999999999418e+04
2.412080000000000002e+00,7.398360000000000582e+04
2.412739999999999885e+00,7.398119999999999709e+04
2.413400000000000212e+00,7.397839999999999418e+04
2.414070000000000160e+00,7.397569999999999709e+04
2.414730000000000043e+00,7.397289999999999418e+04
2.415389999999999926e+00,7.396939999999999418e+04
2.416050000000000253e+00,7.396569999999999709e+04
2.416719999999999757e+00,7.396219999999999709e+04
2.417380000000000084e+00,7.395880000000000291e+04
2.418039999999999967e+00,7.395519999999999709e+04
2.418699999999999850e+00,7.395150000000000000e+04
2.419369999999999798e+00,7.394900000000000000e+04
2.420030000000000125e+00,7.394710000000000582e+04
2.420690000000000008e+00,7.394450000000000000e+04
2.421349999999999891e+00,7.394139999999999418e+04
2.422019999999999840e+00,7.393839999999999418e+04
2.422679999999999723e+00,7.393539999999999418e+04
2.423340000000000050e+00,7.393189999999999418e+04
2.424010000000000442e+00,7.392819999999999709e+04
2.424670000000000325e+00,7.392469999999999709e+04
2.425329999999999764e+00,7.392130000000000291e+04
2.425989999999999647e+00,7.391760000000000582e+04
2.426660000000000039e+00,7.391410000000000582e+04
2.427320000000000366e+00,7.391100000000000000e+04
2.427980000000000249e+00,7.390839999999999418e+04
2.428640000000000132e+00,7.390589999999999418e+04
2.429310000000000080e+00,7.390269999999999709e+04
2.429969999999999963e+00,7.389919999999999709e+04
2.430630000000000290e+00,7.389580000000000291e+04
2.431290000000000173e+00,7.389239999999999418e+04
2.431960000000000122e+00,7.388850000000000000e+04
2.432620000000000005e+00,7.388439999999999418e+04
2.433280000000000332e+00,7.388069999999999709e+04
2.433940000000000214e+00,7.387760000000000582e+04
2.434610000000000163e+00,7.387480000000000291e+04
2.435270000000000046e+00,7.387230000000000291e+04
2.435929999999999929e+00,7.387030000000000291e+04
2.436590000000000256e+00,7.386800000000000000e+04
2.437260000000000204e+00,7.386489999999999418e+04
2.437920000000000087e+00,7.386130000000000291e+04
2.438579999999999970e+00,7.385789999999999418e+04
2.439239999999999853e+00,7.385460000000000582e+04
2.439909999999999801e+00,7.385089999999999418e+04
2.440570000000000128e+00,7.384700000000000000e+04
2.441230000000000011e+00,7.384369999999999709e+04
2.441899999999999959e+00,7.384139999999999418e+04
2.442559999999999842e+00,7.383900000000000000e+04
2.443219999999999725e+00,7.383630000000000291e+04
2.443880000000000052e+00,7.383380000000000291e+04
2.444550000000000445e+00,7.383119999999999709e+04
2.445209999999999884e+00,7.382769999999999709e+04
2.445869999999999767e+00,7.382400000000000000e+04
2.446530000000000094e+00,7.382069999999999709e+04
2.447200000000000042e+00,7.381739999999999418e+04
2.447860000000000369e+00,7.381369999999999709e+04
2.448520000000000252e+00,7.381010000000000582e+04
2.449179999999999691e+00,7.380760000000000582e+04
2.449850000000000083e+00,7.380560000000000582e+04
2.450510000000000410e+00,7.380300000000000000e+04
2.451170000000000293e+00,7.379969999999999709e+04
2.451830000000000176e+00,7.379589999999999418e+04
2.452500000000000124e+00,7.379239999999999418e+04
2.453160000000000007e+00,7.378900000000000000e+04
2.453820000000000334e+00,7.378519999999999709e+04
2.454480000000000217e+00,7.378119999999999709e+04
2.455150000000000166e+00,7.377780000000000291e+04
2.455810000000000048e+00,7.377460000000000582e+04
2.456469999999999931e+00,7.377110000000000582e+04
2.457130000000000258e+00,7.376800000000000000e+04
2.457800000000000207e+00,7.376600000000000000e+04
2.458460000000000090e+00,7.376389999999999418e+04
2.459119999999999973e+00,7.376119999999999709e+04
2.459780000000000300e+00,7.375800000000000000e+04
2.460449999999999804e+00,7.375480000000000291e+04
2.461110000000000131e+00,7.375169999999999709e+04
2.461770000000000014e+00,7.374810000000000582e+04
2.462439999999999962e+00,7.374410000000000582e+04
2.463099999999999845e+00,7.374039999999999418e+04
2.463760000000000172e+00,7.373730000000000291e+04
2.464420000000000055e+00,7.373460000000000582e+04
2.465090000000000003e+00,7.373219999999999709e+04
2.465749999999999886e+00,7.373000000000000000e+04
2.466409999999999769e+00,7.372780000000000291e+04
2.467070000000000096e+00,7.372469999999999709e+04
2.467740000000000045e+00,7.372119999999999709e+04
2.468399999999999928e+00,7.371800000000000000e+04
2.469059999999999810e+00,7.371469999999999709e+04
2.469719999999999693e+00,7.371080000000000291e+04
2.470390000000000086e+00,7.370680000000000291e+04
2.471050000000000413e+00,7.370330000000000291e+04
2.471710000000000296e+00,7.370030000000000291e+04
2.472369999999999735e+00,7.369750000000000000e+04
2.473040000000000127e+00,7.369510000000000582e+04
2.473700000000000010e+00,7.369300000000000000e+04
2.474360000000000337e+00,7.369089999999999418e+04
2.475020000000000220e+00,7.368789999999999418e+04
2.475690000000000168e+00,7.368389999999999418e+04
2.476350000000000051e+00,7.367960000000000582e+04
2.477010000000000378e+00,7.367580000000000291e+04
2.477670000000000261e+00,7.367239999999999418e+04
2.478340000000000209e+00,7.366860000000000582e+04
2.479000000000000092e+00,7.366489999999999418e+04
2.479659999999999975e+00,7.366230000000000291e+04
2.480320000000000302e+00,7.366039999999999418e+04
2.480989999999999807e+00,7.365800000000000000e+04
2.481650000000000134e+00,7.365500000000000000e+04
2.482310000000000016e+00,7.365219999999999709e+04
2.482979999999999965e+00,7.364930000000000291e+04
2.483639999999999848e+00,7.364569999999999709e+04
2.484300000000000175e+00,7.364189999999999418e+04
2.484960000000000058e+00,7.363850000000000000e+04
2.485630000000000006e+00,7.363530000000000291e+04
2.486289999999999889e+00,7.363189999999999418e+04
2.486949999999999772e+00,7.362900000000000000e+04
2.487610000000000099e+00,7.362700000000000000e+04
2.488280000000000047e+00,7.362510000000000582e+04
2.488939999999999930e+00,7.362230000000000291e+04
2.489599999999999813e+00,7.361910000000000582e+04
2.490260000000000140e+00,7.361610000000000582e+04
2.490930000000000089e+00,7.361300000000000000e+04
2.491590000000000416e+00,7.360930000000000291e+04
2.492249999999999854e+00,7.360539999999999418e+04
2.492909999999999737e+00,7.360200000000000000e+04
2.493580000000000130e+00,7.359880000000000291e+04
2.494240000000000013e+00,7.359539999999999418e+04
2.494900000000000340e+00,7.359260000000000582e+04
2.495559999999999778e+00,7.359050000000000000e+04
2.496230000000000171e+00,7.358839999999999418e+04
2.496890000000000054e+00,7.358569999999999709e+04
2.497550000000000381e+00,7.358250000000000000e+04
2.498210000000000264e+00,7.357950000000000000e+04
2.498880000000000212e+00,7.357660000000000582e+04
2.499540000000000095e+00,7.357300000000000000e+04
2.500199999999999978e+00,7.356869999999999709e+04
2.500860000000000305e+00,7.356430000000000291e+04
2.501530000000000253e+00,7.356069999999999709e+04
2.502190000000000136e+00,7.355819999999999709e+04
2.502850000000000019e+00,7.355580000000000291e+04
2.503519999999999968e+00,7.355319999999999709e+04
2.504179999999999851e+00,7.355080000000000291e+04
2.504840000000000177e+00,7.354819999999999709e+04
2.505500000000000060e+00,7.354489999999999418e+04
2.506170000000000009e+00,7.354119999999999709e+04
2.506829999999999892e+00,7.353789999999999418e+04
2.507489999999999775e+00,7.353460000000000582e+04
2.508150000000000102e+00,7.353080000000000291e+04
2.508820000000000050e+00,7.352719999999999709e+04
2.509479999999999933e+00,7.352489999999999418e+04
2.510139999999999816e+00,7.352310000000000582e+04
2.510800000000000143e+00,7.352060000000000582e+04
2.511469999999999647e+00,7.351769999999999709e+04
2.512129999999999974e+00,7.351489999999999418e+04
2.512789999999999857e+00,7.351210000000000582e+04
2.513449999999999740e+00,7.350860000000000582e+04
2.514120000000000132e+00,7.350489999999999418e+04
2.514780000000000459e+00,7.350160000000000582e+04
2.515439999999999898e+00,7.349839999999999418e+04
2.516099999999999781e+00,7.349480000000000291e+04
2.516770000000000174e+00,7.349119999999999709e+04
2.517430000000000057e+00,7.348880000000000291e+04
2.518090000000000384e+00,7.348700000000000000e+04
2.518750000000000266e+00,7.348460000000000582e+04
2.519420000000000215e+00,7.348169999999999709e+04
2.520080000000000098e+00,7.347880000000000291e+04
2.520739999999999981e+00,7.347589999999999418e+04
2.521409999999999929e+00,7.347250000000000000e+04
2.522070000000000256e+00,7.346889999999999418e+04
2.522730000000000139e+00,7.346550000000000000e+04
2.523390000000000022e+00,7.346219999999999709e+04
2.524059999999999970e+00,7.345880000000000291e+04
2.524719999999999853e+00,7.345569999999999709e+04
2.525380000000000180e+00,7.345289999999999418e+04
2.526040000000000063e+00,7.345050000000000000e+04
2.526710000000000012e+00,7.344789999999999418e+04
2.527369999999999894e+00,7.344469999999999709e+04
2.528030000000000221e+00,7.344119999999999709e+04
2.528690000000000104e+00,7.343800000000000000e+04
2.529360000000000053e+00,7.343480000000000291e+04
2.530019999999999936e+00,7.343110000000000582e+04
2.530679999999999819e+00,7.342719999999999709e+04
2.531340000000000146e+00,7.342410000000000582e+04
2.532010000000000094e+00,7.342200000000000000e+04
2.532669999999999977e+00,7.341969999999999709e+04
2.533329999999999860e+00,7.341710000000000582e+04
2.533989999999999743e+00,7.341480000000000291e+04
2.534659999999999691e+00,7.341230000000000291e+04
2.535320000000000018e+00,7.340910000000000582e+04
2.535979999999999901e+00,7.340550000000000000e+04
2.536639999999999784e+00,7.340219999999999709e+04
2.537310000000000176e+00,7.339900000000000000e+04
2.537970000000000059e+00,7.339539999999999418e+04
2.538629999999999942e+00,7.339139999999999418e+04
2.539289999999999825e+00,7.338830000000000291e+04
2.539960000000000218e+00,7.338610000000000582e+04
2.540620000000000100e+00,7.338400000000000000e+04
2.541280000000000427e+00,7.338150000000000000e+04
2.541949999999999932e+00,7.337910000000000582e+04
2.542610000000000259e+00,7.337660000000000582e+04
2.543270000000000142e+00,7.337339999999999418e+04
2.543930000000000025e+00,7.336969999999999709e+04
2.544599999999999973e+00,7.336639999999999418e+04
2.545260000000000300e+00,7.336330000000000291e+04
2.545920000000000183e+00,7.335969999999999709e+04
2.546580000000000066e+00,7.335580000000000291e+04
2.547250000000000014e+00,7.335269999999999709e+04
2.547909999999999897e+00,7.335050000000000000e+04
2.548570000000000224e+00,7.334839999999999418e+04
2.549230000000000107e+00,7.334550000000000000e+04
2.549900000000000055e+00,7.334210000000000582e+04
2.550559999999999938e+00,7.333900000000000000e+04
2.551219999999999821e+00,7.333589999999999418e+04
2.551880000000000148e+00,7.333230000000000291e+04
2.552550000000000097e+00,7.332839999999999418e+04
2.553209999999999980e+00,7.332500000000000000e+04
2.553869999999999862e+00,7.332210000000000582e+04
2.554530000000000189e+00,7.331960000000000582e+04
2.555199999999999694e+00,7.331739999999999418e+04
2.555860000000000021e+00,7.331539999999999418e+04
2.556519999999999904e+00,7.331319999999999709e+04
2.557179999999999787e+00,7.331019999999999709e+04
2.557850000000000179e+00,7.330680000000000291e+04
2.558510000000000062e+00,7.330369999999999709e+04
2.559169999999999945e+00,7.330060000000000582e+04
2.559840000000000337e+00,7.329700000000000000e+04
2.560500000000000220e+00,7.329330000000000291e+04
2.561160000000000103e+00,7.329000000000000000e+04
2.561820000000000430e+00,7.328710000000000582e+04
2.562489999999999934e+00,7.328439999999999418e+04
2.563150000000000261e+00,7.328200000000000000e+04
2.563810000000000144e+00,7.327989999999999418e+04
2.564470000000000027e+00,7.327760000000000582e+04
2.565139999999999976e+00,7.327469999999999709e+04
2.565800000000000303e+00,7.327139999999999418e+04
2.566460000000000186e+00,7.326830000000000291e+04
2.567120000000000068e+00,7.326530000000000291e+04
2.567790000000000017e+00,7.326180000000000291e+04
2.568449999999999900e+00,7.325810000000000582e+04
2.569110000000000227e+00,7.325510000000000582e+04
2.569770000000000110e+00,7.325289999999999418e+04
2.570440000000000058e+00,7.325080000000000291e+04
2.571099999999999941e+00,7.324789999999999418e+04
2.571760000000000268e+00,7.324450000000000000e+04
2.572420000000000151e+00,7.324150000000000000e+04
2.573090000000000099e+00,7.323850000000000000e+04
2.573749999999999982e+00,7.323489999999999418e+04
2.574409999999999865e+00,7.323089999999999418e+04
2.575070000000000192e+00,7.322750000000000000e+04
2.575739999999999696e+00,7.322450000000000000e+04
2.576400000000000023e+00,7.322130000000000291e+04
2.577059999999999906e+00,7.321860000000000582e+04
2.577729999999999855e+00,7.321680000000000291e+04
2.578389999999999738e+00,7.321480000000000291e+04
2.579050000000000065e+00,7.321210000000000582e+04
2.579709999999999948e+00,7.320900000000000000e+04
2.580380000000000340e+00,7.320610000000000582e+04
2.581040000000000223e+00,7.320319999999999709e+04
2.581699999999999662e+00,7.319969999999999709e+04
2.582359999999999989e+00,7.319600000000000000e+04
2.583030000000000381e+00,7.319269999999999709e+04
2.583690000000000264e+00,7.318950000000000000e+04
2.584350000000000147e+00,7.318610000000000582e+04
2.585010000000000474e+00,7.318300000000000000e+04
2.585679999999999978e+00,7.318030000000000291e+04
2.586340000000000305e+00,7.317789999999999418e+04
2.586989999999999679e+00,7.317530000000000291e+04
2.587639999999999940e+00,7.317230000000000291e+04
2.588270000000000071e+00,7.316960000000000582e+04
2.588909999999999823e+00,7.316739999999999418e+04
2.589530000000000332e+00,7.316500000000000000e+04
2.590149999999999952e+00,7.316250000000000000e+04
2.590770000000000017e+00,7.316010000000000582e+04
2.591380000000000017e+00,7.315730000000000291e+04
2.591979999999999951e+00,7.315380000000000291e+04
2.592579999999999885e+00,7.315019999999999709e+04
2.593170000000000197e+00,7.314689999999999418e+04
2.593750000000000000e+00,7.314460000000000582e+04
2.594329999999999803e+00,7.314330000000000291e+04
2.594899999999999984e+00,7.314200000000000000e+04
2.595469999999999722e+00,7.314039999999999418e+04
2.596030000000000282e+00,7.313869999999999709e+04
2.596590000000000398e+00,7.313639999999999418e+04
2.597140000000000004e+00,7.313350000000000000e+04
2.597679999999999989e+00,7.313039999999999418e+04
2.598219999999999974e+00,7.312780000000000291e+04
2.598760000000000403e+00,7.312580000000000291e+04
2.599289999999999878e+00,7.312369999999999709e+04
2.599810000000000176e+00,7.312100000000000000e+04
2.600330000000000030e+00,7.311839999999999418e+04
2.600840000000000263e+00,7.311619999999999709e+04
2.601350000000000051e+00,7.311389999999999418e+04
2.601860000000000284e+00,7.311130000000000291e+04
2.602349999999999941e+00,7.310900000000000000e+04
2.602850000000000108e+00,7.310719999999999709e+04
2.603340000000000209e+00,7.310560000000000582e+04
2.603820000000000245e+00,7.310380000000000291e+04
2.604300000000000281e+00,7.310200000000000000e+04
2.604770000000000252e+00,7.309989999999999418e+04
2.605239999999999778e+00,7.309780000000000291e+04
2.605710000000000193e+00,7.309569999999999709e+04
2.606170000000000098e+00,7.309400000000000000e+04
2.606619999999999937e+00,7.309260000000000582e+04
2.607079999999999842e+00,7.309150000000000000e+04
2.607520000000000060e+00,7.309060000000000582e+04
2.607969999999999899e+00,7.308980000000000291e+04
2.608400000000000052e+00,7.308880000000000291e+04
2.608840000000000270e+00,7.308730000000000291e+04
