x(m),wallHeatFlux(W/m2)
9.945239999999999669e-05,4.601060000000000000e+06
1.998989999999999914e-04,2.662740000000000000e+06
3.013509999999999952e-04,2.023550000000000000e+06
4.038169999999999997e-04,1.665770000000000000e+06
5.073069999999999186e-04,1.424570000000000000e+06
6.118320000000000876e-04,1.254100000000000000e+06
7.174030000000000294e-04,1.126660000000000000e+06
8.240300000000000099e-04,1.029000000000000000e+06
9.317220000000000623e-04,9.514910000000000000e+05
1.040490000000000035e-03,8.879750000000000000e+05
1.150350000000000070e-03,8.346420000000000000e+05
1.261309999999999862e-03,7.889880000000000000e+05
1.373370000000000059e-03,7.492910000000000000e+05
1.486560000000000051e-03,7.143370000000000000e+05
1.600870000000000114e-03,6.832440000000000000e+05
1.716340000000000010e-03,6.553480000000000000e+05
1.832950000000000074e-03,6.301370000000000000e+05
1.950730000000000129e-03,6.072130000000000000e+05
2.069689999999999898e-03,5.862580000000000000e+05
2.189839999999999755e-03,5.670160000000000000e+05
2.311189999999999859e-03,5.492720000000000000e+05
2.433760000000000090e-03,5.328450000000000000e+05
2.557550000000000014e-03,5.175810000000000000e+05
2.682580000000000381e-03,5.033470000000000000e+05
2.808850000000000322e-03,4.900340000000000000e+05
2.936390000000000094e-03,4.775470000000000000e+05
3.065210000000000070e-03,4.658050000000000000e+05
3.195310000000000251e-03,4.547360000000000000e+05
3.326720000000000024e-03,4.442820000000000000e+05
3.459439999999999824e-03,4.343880000000000000e+05
3.593489999999999965e-03,4.250080000000000000e+05
3.728870000000000014e-03,4.160970000000000000e+05
3.865610000000000226e-03,4.076140000000000000e+05
4.003720000000000542e-03,3.995270000000000000e+05
4.143209999999999602e-03,3.918080000000000000e+05
4.284099999999999887e-03,3.844340000000000000e+05
4.426389999999999665e-03,3.773820000000000000e+05
4.570109999999999624e-03,3.706310000000000000e+05
4.715259999999999764e-03,3.641600000000000000e+05
4.861869999999999907e-03,3.579510000000000000e+05
5.009940000000000053e-03,3.519880000000000000e+05
5.159490000000000083e-03,3.462520000000000000e+05
5.310539999999999879e-03,3.407300000000000000e+05
5.463090000000000307e-03,3.354060000000000000e+05
5.617180000000000263e-03,3.302720000000000000e+05
5.772800000000000674e-03,3.253190000000000000e+05
5.929979999999999626e-03,3.205390000000000000e+05
6.088730000000000531e-03,3.159230000000000000e+05
6.249069999999999799e-03,3.114620000000000000e+05
6.411019999999999913e-03,3.071490000000000000e+05
6.574580000000000007e-03,3.029750000000000000e+05
6.739779999999999903e-03,2.989350000000000000e+05
6.906629999999999540e-03,2.950210000000000000e+05
7.075149999999999668e-03,2.912280000000000000e+05
7.245350000000000228e-03,2.875510000000000000e+05
7.417260000000000172e-03,2.839870000000000000e+05
7.590880000000000370e-03,2.805340000000000000e+05
7.766239999999999775e-03,2.771880000000000000e+05
7.943360000000000004e-03,2.739440000000000000e+05
8.122239999999999321e-03,2.707960000000000000e+05
8.302920000000000092e-03,2.677380000000000000e+05
8.485400000000000581e-03,2.647680000000000000e+05
8.669710000000000610e-03,2.618830000000000000e+05
8.855850000000000180e-03,2.590820000000000000e+05
9.043870000000000728e-03,2.563650000000000000e+05
9.233760000000000578e-03,2.537300000000000000e+05
9.425549999999999554e-03,2.511760000000000000e+05
9.619249999999999329e-03,2.487010000000000000e+05
9.814899999999999666e-03,2.463040000000000000e+05
1.001249999999999883e-02,2.439810000000000000e+05
1.021210000000000000e-02,2.417280000000000000e+05
1.041370000000000143e-02,2.395440000000000000e+05
1.061720000000000025e-02,2.374250000000000000e+05
1.082290000000000162e-02,2.353710000000000000e+05
1.103050000000000037e-02,2.333800000000000000e+05
1.124029999999999994e-02,2.314550000000000000e+05
1.145219999999999919e-02,2.295960000000000000e+05
1.166610000000000043e-02,2.278000000000000000e+05
1.188219999999999901e-02,2.260660000000000000e+05
1.210050000000000014e-02,2.243910000000000000e+05
1.232100000000000035e-02,2.227730000000000000e+05
1.254360000000000024e-02,2.212110000000000000e+05
1.276850000000000034e-02,2.197030000000000000e+05
1.299569999999999892e-02,2.182490000000000000e+05
1.322510000000000005e-02,2.168490000000000000e+05
1.345679999999999966e-02,2.155000000000000000e+05
1.369079999999999950e-02,2.142020000000000000e+05
1.392719999999999896e-02,2.129520000000000000e+05
1.416590000000000037e-02,2.117500000000000000e+05
1.440699999999999967e-02,2.105940000000000000e+05
1.465050000000000033e-02,2.094830000000000000e+05
1.489650000000000002e-02,2.084130000000000000e+05
1.514489999999999933e-02,2.073830000000000000e+05
1.539579999999999942e-02,2.063910000000000000e+05
1.564920000000000200e-02,2.054350000000000000e+05
1.590509999999999841e-02,2.045150000000000000e+05
1.616369999999999960e-02,2.036310000000000000e+05
1.642470000000000041e-02,2.027800000000000000e+05
1.668840000000000254e-02,2.019600000000000000e+05
1.695479999999999904e-02,2.011700000000000000e+05
1.722380000000000091e-02,2.004060000000000000e+05
1.749550000000000063e-02,1.996660000000000000e+05
1.776990000000000167e-02,1.989470000000000000e+05
1.804700000000000054e-02,1.982500000000000000e+05
1.832690000000000013e-02,1.975730000000000000e+05
1.860969999999999985e-02,1.969160000000000000e+05
1.889520000000000088e-02,1.962780000000000000e+05
1.918359999999999857e-02,1.956580000000000000e+05
1.947490000000000332e-02,1.950520000000000000e+05
1.976910000000000125e-02,1.944590000000000000e+05
2.006629999999999872e-02,1.938750000000000000e+05
2.036639999999999978e-02,1.933010000000000000e+05
2.066950000000000037e-02,1.927350000000000000e+05
2.097560000000000049e-02,1.921790000000000000e+05
2.128479999999999955e-02,1.916310000000000000e+05
2.159710000000000102e-02,1.910900000000000000e+05
2.191260000000000083e-02,1.905550000000000000e+05
2.223110000000000017e-02,1.900240000000000000e+05
2.255290000000000072e-02,1.894960000000000000e+05
2.287789999999999963e-02,1.889710000000000000e+05
2.320610000000000034e-02,1.884500000000000000e+05
2.353760000000000227e-02,1.879360000000000000e+05
2.387249999999999789e-02,1.874260000000000000e+05
2.421059999999999879e-02,1.869180000000000000e+05
2.455219999999999972e-02,1.864060000000000000e+05
2.489720000000000127e-02,1.858870000000000000e+05
2.524559999999999998e-02,1.853580000000000000e+05
2.559750000000000220e-02,1.848160000000000000e+05
2.595290000000000097e-02,1.842620000000000000e+05
2.631190000000000265e-02,1.836960000000000000e+05
2.667450000000000029e-02,1.831180000000000000e+05
2.704070000000000085e-02,1.825300000000000000e+05
2.741050000000000084e-02,1.819320000000000000e+05
2.778409999999999908e-02,1.813250000000000000e+05
2.816139999999999963e-02,1.807100000000000000e+05
2.854250000000000190e-02,1.800870000000000000e+05
2.892729999999999954e-02,1.794570000000000000e+05
2.931609999999999772e-02,1.788210000000000000e+05
2.970870000000000108e-02,1.781800000000000000e+05
3.010520000000000210e-02,1.775370000000000000e+05
3.050570000000000018e-02,1.768910000000000000e+05
3.091019999999999879e-02,1.762440000000000000e+05
3.131880000000000080e-02,1.755970000000000000e+05
3.173139999999999988e-02,1.749490000000000000e+05
3.214820000000000177e-02,1.743010000000000000e+05
3.256909999999999666e-02,1.736530000000000000e+05
3.299430000000000418e-02,1.730080000000000000e+05
3.342370000000000063e-02,1.723640000000000000e+05
3.385739999999999583e-02,1.717220000000000000e+05
3.429540000000000366e-02,1.710830000000000000e+05
3.473779999999999923e-02,1.704460000000000000e+05
3.518460000000000337e-02,1.698120000000000000e+05
3.563589999999999813e-02,1.691810000000000000e+05
3.609170000000000433e-02,1.685530000000000000e+05
3.655210000000000403e-02,1.679290000000000000e+05
3.701709999999999723e-02,1.673100000000000000e+05
3.748669999999999780e-02,1.666950000000000000e+05
3.796100000000000169e-02,1.660860000000000000e+05
3.844010000000000482e-02,1.654820000000000000e+05
3.892390000000000433e-02,1.648820000000000000e+05
3.941259999999999902e-02,1.642850000000000000e+05
3.990619999999999584e-02,1.636920000000000000e+05
4.040470000000000173e-02,1.631050000000000000e+05
4.090819999999999873e-02,1.625250000000000000e+05
4.141670000000000074e-02,1.619510000000000000e+05
4.193039999999999962e-02,1.613830000000000000e+05
4.244910000000000350e-02,1.608160000000000000e+05
4.297310000000000019e-02,1.602530000000000000e+05
4.350230000000000069e-02,1.596960000000000000e+05
4.403670000000000501e-02,1.591470000000000000e+05
4.457650000000000501e-02,1.586070000000000000e+05
4.512180000000000357e-02,1.580730000000000000e+05
4.567240000000000189e-02,1.575410000000000000e+05
4.622860000000000164e-02,1.570090000000000000e+05
4.679039999999999588e-02,1.564790000000000000e+05
4.735770000000000257e-02,1.559580000000000000e+05
4.793069999999999969e-02,1.554500000000000000e+05
4.850950000000000401e-02,1.549540000000000000e+05
4.909399999999999875e-02,1.544670000000000000e+05
4.968439999999999662e-02,1.539790000000000000e+05
5.028070000000000456e-02,1.534870000000000000e+05
5.088300000000000461e-02,1.529920000000000000e+05
5.149130000000000373e-02,1.525010000000000000e+05
5.210560000000000191e-02,1.520220000000000000e+05
5.272610000000000491e-02,1.515600000000000000e+05
5.335290000000000171e-02,1.511120000000000000e+05
5.398580000000000045e-02,1.506700000000000000e+05
5.462519999999999876e-02,1.502270000000000000e+05
5.527089999999999781e-02,1.497770000000000000e+05
5.592300000000000049e-02,1.493220000000000000e+05
5.658169999999999866e-02,1.488680000000000000e+05
5.724699999999999928e-02,1.484230000000000000e+05
5.790959999999999858e-02,1.479990000000000000e+05
5.857210000000000194e-02,1.475940000000000000e+05
5.923470000000000124e-02,1.472040000000000000e+05
5.989730000000000054e-02,1.468220000000000000e+05
6.055989999999999984e-02,1.464420000000000000e+05
6.122249999999999914e-02,1.460610000000000000e+05
6.188510000000000538e-02,1.456770000000000000e+05
6.254769999999999774e-02,1.452950000000000000e+05
6.321020000000000805e-02,1.449190000000000000e+05
6.387279999999999347e-02,1.445520000000000000e+05
6.453539999999999277e-02,1.441990000000000000e+05
6.519799999999999207e-02,1.438590000000000000e+05
6.586060000000000525e-02,1.435320000000000000e+05
6.652320000000000455e-02,1.432140000000000000e+05
6.718580000000000385e-02,1.429030000000000000e+05
6.784830000000000028e-02,1.425950000000000000e+05
6.851090000000001345e-02,1.422870000000000000e+05
6.917349999999999888e-02,1.419810000000000000e+05
6.983609999999999818e-02,1.416740000000000000e+05
7.049869999999999748e-02,1.413690000000000000e+05
7.116129999999999678e-02,1.410660000000000000e+05
7.182389999999999608e-02,1.407660000000000000e+05
7.248650000000000926e-02,1.404700000000000000e+05
7.314900000000000568e-02,1.401810000000000000e+05
7.381160000000000498e-02,1.398990000000000000e+05
7.447420000000000428e-02,1.396270000000000000e+05
7.513679999999998971e-02,1.393640000000000000e+05
7.579940000000000289e-02,1.391090000000000000e+05
7.646200000000000219e-02,1.388610000000000000e+05
7.712460000000000149e-02,1.386170000000000000e+05
7.778709999999999791e-02,1.383750000000000000e+05
7.844970000000001109e-02,1.381340000000000000e+05
7.911230000000001039e-02,1.378940000000000000e+05
7.977490000000000969e-02,1.376550000000000000e+05
8.043749999999999512e-02,1.374170000000000000e+05
8.110009999999999442e-02,1.371800000000000000e+05
8.176269999999999372e-02,1.369440000000000000e+05
8.242529999999999302e-02,1.367110000000000000e+05
8.308780000000000332e-02,1.364800000000000000e+05
8.375040000000000262e-02,1.362520000000000000e+05
8.441300000000000192e-02,1.360280000000000000e+05
8.507560000000000122e-02,1.358070000000000000e+05
8.573820000000001440e-02,1.355910000000000000e+05
8.640079999999999982e-02,1.353790000000000000e+05
8.706329999999999625e-02,1.351710000000000000e+05
8.772589999999999555e-02,1.349670000000000000e+05
8.838849999999999485e-02,1.347660000000000000e+05
8.905110000000000803e-02,1.345680000000000000e+05
8.971370000000000733e-02,1.343710000000000000e+05
9.037630000000000663e-02,1.341740000000000000e+05
9.103890000000000593e-02,1.339760000000000000e+05
9.170149999999999135e-02,1.337770000000000000e+05
9.236400000000000166e-02,1.335770000000000000e+05
9.302660000000000096e-02,1.333780000000000000e+05
9.368920000000000026e-02,1.331820000000000000e+05
9.435179999999999956e-02,1.329910000000000000e+05
9.501439999999999886e-02,1.328060000000000000e+05
9.567700000000001204e-02,1.326270000000000000e+05
9.633960000000001134e-02,1.324540000000000000e+05
9.700209999999999388e-02,1.322840000000000000e+05
9.766469999999999319e-02,1.321150000000000000e+05
9.832729999999999249e-02,1.319440000000000000e+05
9.898990000000000566e-02,1.317730000000000000e+05
9.965250000000000496e-02,1.316000000000000000e+05
1.003150000000000014e-01,1.314290000000000000e+05
1.009779999999999983e-01,1.312590000000000000e+05
1.016400000000000081e-01,1.310920000000000000e+05
1.023030000000000050e-01,1.309280000000000000e+05
1.029650000000000010e-01,1.307670000000000000e+05
1.036279999999999979e-01,1.306090000000000000e+05
1.042909999999999948e-01,1.304510000000000000e+05
1.049530000000000046e-01,1.302950000000000000e+05
1.056160000000000015e-01,1.301390000000000000e+05
1.062780000000000113e-01,1.299850000000000000e+05
1.069410000000000083e-01,1.298320000000000000e+05
1.076040000000000052e-01,1.296810000000000000e+05
1.082660000000000011e-01,1.295320000000000000e+05
1.089289999999999980e-01,1.293850000000000000e+05
1.095909999999999940e-01,1.292380000000000000e+05
1.102540000000000048e-01,1.290930000000000000e+05
1.109160000000000007e-01,1.289490000000000000e+05
1.115789999999999976e-01,1.288060000000000000e+05
1.122420000000000084e-01,1.286640000000000000e+05
1.129040000000000044e-01,1.285230000000000000e+05
1.135670000000000013e-01,1.283840000000000000e+05
1.142289999999999972e-01,1.282470000000000000e+05
1.148919999999999941e-01,1.281100000000000000e+05
1.155550000000000049e-01,1.279750000000000000e+05
1.162170000000000009e-01,1.278410000000000000e+05
1.168799999999999978e-01,1.277080000000000000e+05
1.175420000000000076e-01,1.275760000000000000e+05
1.182050000000000045e-01,1.274450000000000000e+05
1.188670000000000004e-01,1.273140000000000000e+05
1.195299999999999974e-01,1.271850000000000000e+05
1.201929999999999943e-01,1.270570000000000000e+05
1.208550000000000041e-01,1.269310000000000000e+05
1.215180000000000010e-01,1.268050000000000000e+05
1.221800000000000108e-01,1.266810000000000000e+05
1.228430000000000077e-01,1.265590000000000000e+05
1.235060000000000047e-01,1.264370000000000000e+05
1.241680000000000145e-01,1.263160000000000000e+05
1.248310000000000114e-01,1.261970000000000000e+05
1.254929999999999934e-01,1.260780000000000000e+05
1.261560000000000181e-01,1.259600000000000000e+05
1.268190000000000150e-01,1.258430000000000000e+05
1.274810000000000110e-01,1.257260000000000000e+05
1.281440000000000079e-01,1.256100000000000000e+05
1.288060000000000038e-01,1.254950000000000000e+05
1.294690000000000007e-01,1.253800000000000000e+05
1.301309999999999967e-01,1.252660000000000000e+05
1.307940000000000214e-01,1.251520000000000000e+05
1.314569999999999905e-01,1.250400000000000000e+05
1.321190000000000142e-01,1.249290000000000000e+05
1.327820000000000111e-01,1.248200000000000000e+05
1.334439999999999793e-01,1.247110000000000000e+05
1.341070000000000040e-01,1.246030000000000000e+05
1.347700000000000009e-01,1.244960000000000000e+05
1.354319999999999968e-01,1.243900000000000000e+05
1.360949999999999938e-01,1.242850000000000000e+05
1.367570000000000174e-01,1.241800000000000000e+05
1.374199999999999866e-01,1.240750000000000000e+05
1.380820000000000103e-01,1.239720000000000000e+05
1.387450000000000072e-01,1.238690000000000000e+05
1.394079999999999764e-01,1.237670000000000000e+05
1.400700000000000001e-01,1.236670000000000000e+05
1.407329999999999970e-01,1.235670000000000000e+05
1.413950000000000207e-01,1.234680000000000000e+05
1.420579999999999898e-01,1.233690000000000000e+05
1.427210000000000145e-01,1.232690000000000000e+05
1.433830000000000104e-01,1.231700000000000000e+05
1.440460000000000074e-01,1.230710000000000000e+05
1.447080000000000033e-01,1.229720000000000000e+05
1.453710000000000002e-01,1.228730000000000000e+05
1.460339999999999971e-01,1.227760000000000000e+05
1.466959999999999931e-01,1.226800000000000000e+05
1.473590000000000177e-01,1.225860000000000000e+05
1.480209999999999859e-01,1.224930000000000000e+05
1.486840000000000106e-01,1.224020000000000000e+05
1.493460000000000065e-01,1.223130000000000000e+05
1.500089999999999757e-01,1.222230000000000000e+05
1.506720000000000004e-01,1.221340000000000000e+05
1.513339999999999963e-01,1.220440000000000000e+05
1.519970000000000210e-01,1.219540000000000000e+05
1.526589999999999892e-01,1.218630000000000000e+05
1.533220000000000138e-01,1.217730000000000000e+05
1.539850000000000108e-01,1.216820000000000000e+05
1.546470000000000067e-01,1.215910000000000000e+05
1.553100000000000036e-01,1.215010000000000000e+05
1.559719999999999995e-01,1.214120000000000000e+05
1.566349999999999965e-01,1.213240000000000000e+05
1.572969999999999924e-01,1.212370000000000000e+05
1.579600000000000171e-01,1.211520000000000000e+05
1.586229999999999862e-01,1.210670000000000000e+05
1.592850000000000099e-01,1.209830000000000000e+05
1.599480000000000068e-01,1.209000000000000000e+05
1.606100000000000305e-01,1.208180000000000000e+05
1.612729999999999997e-01,1.207360000000000000e+05
1.619359999999999966e-01,1.206540000000000000e+05
1.625980000000000203e-01,1.205730000000000000e+05
1.632609999999999895e-01,1.204920000000000000e+05
1.639230000000000131e-01,1.204120000000000000e+05
1.645860000000000101e-01,1.203320000000000000e+05
1.652490000000000070e-01,1.202520000000000000e+05
1.659110000000000029e-01,1.201730000000000000e+05
1.665740000000000276e-01,1.200950000000000000e+05
1.672359999999999958e-01,1.200170000000000000e+05
1.678989999999999927e-01,1.199390000000000000e+05
1.685610000000000164e-01,1.198610000000000000e+05
1.692239999999999855e-01,1.197840000000000000e+05
1.698870000000000102e-01,1.197060000000000000e+05
1.705490000000000061e-01,1.196280000000000000e+05
1.712120000000000031e-01,1.195500000000000000e+05
1.718739999999999990e-01,1.194720000000000000e+05
1.725369999999999959e-01,1.193940000000000000e+05
1.731999999999999929e-01,1.193160000000000000e+05
1.738619999999999888e-01,1.192390000000000000e+05
1.745250000000000135e-01,1.191630000000000000e+05
1.751870000000000094e-01,1.190880000000000000e+05
1.758500000000000063e-01,1.190140000000000000e+05
1.765120000000000022e-01,1.189420000000000000e+05
1.771750000000000269e-01,1.188700000000000000e+05
1.778379999999999961e-01,1.188000000000000000e+05
1.784999999999999920e-01,1.187300000000000000e+05
1.791630000000000167e-01,1.186600000000000000e+05
1.798249999999999849e-01,1.185900000000000000e+05
1.804880000000000095e-01,1.185200000000000000e+05
1.811510000000000065e-01,1.184490000000000000e+05
1.818130000000000024e-01,1.183780000000000000e+05
1.824759999999999993e-01,1.183070000000000000e+05
1.831379999999999952e-01,1.182360000000000000e+05
1.838009999999999922e-01,1.181650000000000000e+05
1.844639999999999891e-01,1.180950000000000000e+05
1.851260000000000128e-01,1.180260000000000000e+05
1.857889999999999819e-01,1.179570000000000000e+05
1.864510000000000056e-01,1.178900000000000000e+05
1.871140000000000025e-01,1.178220000000000000e+05
1.877760000000000262e-01,1.177550000000000000e+05
1.884389999999999954e-01,1.176880000000000000e+05
1.891020000000000201e-01,1.176210000000000000e+05
1.897640000000000160e-01,1.175540000000000000e+05
1.904269999999999852e-01,1.174870000000000000e+05
1.910890000000000088e-01,1.174210000000000000e+05
1.917520000000000058e-01,1.173550000000000000e+05
1.924150000000000027e-01,1.172890000000000000e+05
1.930769999999999986e-01,1.172240000000000000e+05
1.937400000000000233e-01,1.171590000000000000e+05
1.944019999999999915e-01,1.170950000000000000e+05
