x(m),wallHeatFlux(W/m2)
2.350459999999999994e+00,7.986210000000000582e+04
2.351119999999999877e+00,7.985750000000000000e+04
2.351780000000000204e+00,7.985060000000000582e+04
2.352449999999999708e+00,7.984910000000000582e+04
2.353110000000000035e+00,7.984810000000000582e+04
2.353769999999999918e+00,7.984480000000000291e+04
2.354429999999999801e+00,7.984000000000000000e+04
2.355099999999999749e+00,7.983660000000000582e+04
2.355760000000000076e+00,7.983350000000000000e+04
2.356419999999999959e+00,7.982910000000000582e+04
2.357079999999999842e+00,7.982560000000000582e+04
2.357750000000000234e+00,7.982330000000000291e+04
2.358410000000000117e+00,7.981989999999999418e+04
2.359070000000000000e+00,7.981400000000000000e+04
2.359729999999999883e+00,7.981089999999999418e+04
2.360400000000000276e+00,7.980939999999999418e+04
2.361060000000000159e+00,7.980539999999999418e+04
2.361720000000000041e+00,7.980139999999999418e+04
2.362380000000000368e+00,7.979830000000000291e+04
2.363050000000000317e+00,7.979530000000000291e+04
2.363710000000000200e+00,7.979119999999999709e+04
2.364370000000000083e+00,7.978689999999999418e+04
2.365030000000000410e+00,7.978360000000000582e+04
2.365699999999999914e+00,7.978210000000000582e+04
2.366360000000000241e+00,7.977939999999999418e+04
2.367020000000000124e+00,7.977339999999999418e+04
2.367690000000000072e+00,7.976980000000000291e+04
2.368349999999999955e+00,7.976800000000000000e+04
2.369010000000000282e+00,7.976489999999999418e+04
2.369670000000000165e+00,7.976130000000000291e+04
2.370340000000000114e+00,7.975769999999999709e+04
2.370999999999999996e+00,7.975489999999999418e+04
2.371659999999999879e+00,7.975169999999999709e+04
2.372320000000000206e+00,7.974780000000000291e+04
2.372989999999999711e+00,7.974560000000000582e+04
2.373650000000000038e+00,7.974180000000000291e+04
2.374309999999999921e+00,7.973569999999999709e+04
2.374969999999999803e+00,7.973419999999999709e+04
2.375639999999999752e+00,7.973360000000000582e+04
2.376300000000000079e+00,7.972860000000000582e+04
2.376959999999999962e+00,7.972400000000000000e+04
2.377619999999999845e+00,7.972100000000000000e+04
2.378289999999999793e+00,7.971830000000000291e+04
2.378949999999999676e+00,7.971310000000000582e+04
2.379610000000000003e+00,7.970910000000000582e+04
2.380269999999999886e+00,7.971000000000000000e+04
2.380940000000000278e+00,7.970539999999999418e+04
2.381600000000000161e+00,7.969530000000000291e+04
2.382260000000000488e+00,7.969389999999999418e+04
2.382919999999999927e+00,7.969739999999999418e+04
2.383590000000000320e+00,7.969230000000000291e+04
2.384250000000000203e+00,7.968400000000000000e+04
2.384910000000000085e+00,7.968069999999999709e+04
2.385580000000000034e+00,7.968050000000000000e+04
2.386239999999999917e+00,7.967839999999999418e+04
2.386900000000000244e+00,7.967330000000000291e+04
2.387560000000000127e+00,7.966810000000000582e+04
2.388230000000000075e+00,7.966939999999999418e+04
2.388889999999999958e+00,7.966710000000000582e+04
2.389550000000000285e+00,7.965630000000000291e+04
2.390210000000000168e+00,7.965410000000000582e+04
2.390880000000000116e+00,7.965830000000000291e+04
2.391539999999999999e+00,7.965369999999999709e+04
2.392199999999999882e+00,7.964450000000000000e+04
2.392860000000000209e+00,7.964089999999999418e+04
2.393530000000000157e+00,7.964150000000000000e+04
2.394190000000000040e+00,7.963880000000000291e+04
2.394849999999999923e+00,7.963130000000000291e+04
2.395510000000000250e+00,7.962969999999999709e+04
2.396179999999999755e+00,7.963000000000000000e+04
2.396840000000000082e+00,7.962260000000000582e+04
2.397499999999999964e+00,7.961619999999999709e+04
2.398159999999999847e+00,7.961500000000000000e+04
2.398829999999999796e+00,7.961700000000000000e+04
2.399489999999999679e+00,7.961380000000000291e+04
2.400150000000000006e+00,7.960410000000000582e+04
2.400809999999999889e+00,7.960069999999999709e+04
2.401480000000000281e+00,7.960119999999999709e+04
2.402139999999999720e+00,7.959719999999999709e+04
2.402800000000000047e+00,7.959250000000000000e+04
2.403459999999999930e+00,7.958939999999999418e+04
2.404130000000000322e+00,7.958489999999999418e+04
2.404790000000000205e+00,7.958450000000000000e+04
2.405450000000000088e+00,7.958419999999999709e+04
2.406120000000000037e+00,7.957589999999999418e+04
2.406780000000000364e+00,7.957100000000000000e+04
2.407440000000000246e+00,7.957289999999999418e+04
2.408100000000000129e+00,7.956919999999999709e+04
2.408770000000000078e+00,7.956069999999999709e+04
2.409429999999999961e+00,7.955830000000000291e+04
2.410090000000000288e+00,7.955860000000000582e+04
2.410750000000000171e+00,7.955610000000000582e+04
2.411420000000000119e+00,7.954960000000000582e+04
2.412080000000000002e+00,7.954289999999999418e+04
2.412739999999999885e+00,7.954360000000000582e+04
2.413400000000000212e+00,7.954380000000000291e+04
2.414070000000000160e+00,7.953639999999999418e+04
2.414730000000000043e+00,7.953180000000000291e+04
2.415389999999999926e+00,7.953300000000000000e+04
2.416050000000000253e+00,7.952889999999999418e+04
2.416719999999999757e+00,7.952010000000000582e+04
2.417380000000000084e+00,7.951739999999999418e+04
2.418039999999999967e+00,7.952010000000000582e+04
2.418699999999999850e+00,7.951700000000000000e+04
2.419369999999999798e+00,7.950719999999999709e+04
2.420030000000000125e+00,7.950410000000000582e+04
2.420690000000000008e+00,7.950700000000000000e+04
2.421349999999999891e+00,7.950289999999999418e+04
2.422019999999999840e+00,7.949469999999999709e+04
2.422679999999999723e+00,7.949350000000000000e+04
2.423340000000000050e+00,7.949469999999999709e+04
2.424010000000000442e+00,7.948900000000000000e+04
2.424670000000000325e+00,7.948219999999999709e+04
2.425329999999999764e+00,7.948239999999999418e+04
2.425989999999999647e+00,7.947969999999999709e+04
2.426660000000000039e+00,7.947389999999999418e+04
2.427320000000000366e+00,7.947339999999999418e+04
2.427980000000000249e+00,7.946830000000000291e+04
2.428640000000000132e+00,7.946389999999999418e+04
2.429310000000000080e+00,7.946580000000000291e+04
2.429969999999999963e+00,7.946069999999999709e+04
2.430630000000000290e+00,7.945119999999999709e+04
2.431290000000000173e+00,7.944939999999999418e+04
2.431960000000000122e+00,7.945030000000000291e+04
2.432620000000000005e+00,7.944569999999999709e+04
2.433280000000000332e+00,7.944150000000000000e+04
2.433940000000000214e+00,7.943860000000000582e+04
2.434610000000000163e+00,7.943410000000000582e+04
2.435270000000000046e+00,7.943189999999999418e+04
2.435929999999999929e+00,7.942739999999999418e+04
2.436590000000000256e+00,7.942289999999999418e+04
2.437260000000000204e+00,7.942419999999999709e+04
2.437920000000000087e+00,7.942100000000000000e+04
2.438579999999999970e+00,7.941339999999999418e+04
2.439239999999999853e+00,7.941060000000000582e+04
2.439909999999999801e+00,7.941019999999999709e+04
2.440570000000000128e+00,7.940669999999999709e+04
2.441230000000000011e+00,7.940019999999999709e+04
2.441899999999999959e+00,7.939589999999999418e+04
2.442559999999999842e+00,7.939760000000000582e+04
2.443219999999999725e+00,7.939710000000000582e+04
2.443880000000000052e+00,7.938939999999999418e+04
2.444550000000000445e+00,7.938430000000000291e+04
2.445209999999999884e+00,7.938439999999999418e+04
2.445869999999999767e+00,7.938100000000000000e+04
2.446530000000000094e+00,7.937380000000000291e+04
2.447200000000000042e+00,7.937110000000000582e+04
2.447860000000000369e+00,7.937410000000000582e+04
2.448520000000000252e+00,7.936960000000000582e+04
2.449179999999999691e+00,7.935860000000000582e+04
2.449850000000000083e+00,7.935789999999999418e+04
2.450510000000000410e+00,7.936069999999999709e+04
2.451170000000000293e+00,7.935819999999999709e+04
2.451830000000000176e+00,7.935310000000000582e+04
2.452500000000000124e+00,7.934510000000000582e+04
2.453160000000000007e+00,7.934100000000000000e+04
2.453820000000000334e+00,7.934189999999999418e+04
2.454480000000000217e+00,7.933950000000000000e+04
2.455150000000000166e+00,7.933180000000000291e+04
2.455810000000000048e+00,7.932989999999999418e+04
2.456469999999999931e+00,7.933039999999999418e+04
2.457130000000000258e+00,7.932189999999999418e+04
2.457800000000000207e+00,7.931530000000000291e+04
2.458460000000000090e+00,7.931669999999999709e+04
2.459119999999999973e+00,7.931869999999999709e+04
2.459780000000000300e+00,7.931339999999999418e+04
2.460449999999999804e+00,7.930450000000000000e+04
2.461110000000000131e+00,7.930230000000000291e+04
2.461770000000000014e+00,7.930339999999999418e+04
2.462439999999999962e+00,7.929960000000000582e+04
2.463099999999999845e+00,7.929389999999999418e+04
2.463760000000000172e+00,7.929069999999999709e+04
2.464420000000000055e+00,7.928880000000000291e+04
2.465090000000000003e+00,7.928669999999999709e+04
2.465749999999999886e+00,7.928180000000000291e+04
2.466409999999999769e+00,7.927939999999999418e+04
2.467070000000000096e+00,7.927989999999999418e+04
2.467740000000000045e+00,7.927539999999999418e+04
2.468399999999999928e+00,7.926680000000000291e+04
2.469059999999999810e+00,7.926410000000000582e+04
2.469719999999999693e+00,7.926560000000000582e+04
2.470390000000000086e+00,7.926110000000000582e+04
2.471050000000000413e+00,7.925530000000000291e+04
2.471710000000000296e+00,7.925280000000000291e+04
2.472369999999999735e+00,7.924989999999999418e+04
2.473040000000000127e+00,7.924710000000000582e+04
2.473700000000000010e+00,7.924310000000000582e+04
2.474360000000000337e+00,7.924089999999999418e+04
2.475020000000000220e+00,7.923780000000000291e+04
2.475690000000000168e+00,7.923560000000000582e+04
2.476350000000000051e+00,7.923219999999999709e+04
2.477010000000000378e+00,7.922280000000000291e+04
2.477670000000000261e+00,7.922039999999999418e+04
2.478340000000000209e+00,7.922550000000000000e+04
2.479000000000000092e+00,7.922030000000000291e+04
2.479659999999999975e+00,7.920830000000000291e+04
2.480320000000000302e+00,7.920889999999999418e+04
2.480989999999999807e+00,7.921169999999999709e+04
2.481650000000000134e+00,7.920689999999999418e+04
2.482310000000000016e+00,7.920050000000000000e+04
2.482979999999999965e+00,7.919630000000000291e+04
2.483639999999999848e+00,7.919300000000000000e+04
2.484300000000000175e+00,7.919480000000000291e+04
2.484960000000000058e+00,7.923600000000000000e+04
2.485630000000000006e+00,7.937430000000000291e+04
2.486289999999999889e+00,7.945969999999999709e+04
2.486949999999999772e+00,7.836969999999999709e+04
2.487610000000000099e+00,7.357080000000000291e+04
2.488280000000000047e+00,6.304900000000000000e+04
2.488939999999999930e+00,4.970119999999999709e+04
2.489599999999999813e+00,4.235919999999999709e+04
2.490260000000000140e+00,4.504100000000000000e+04
2.490930000000000089e+00,5.241369999999999709e+04
2.491590000000000416e+00,5.951450000000000000e+04
2.492249999999999854e+00,6.538259999999999854e+04
2.492909999999999737e+00,7.038710000000000582e+04
2.493580000000000130e+00,7.482269999999999709e+04
2.494240000000000013e+00,7.881969999999999709e+04
2.494900000000000340e+00,8.244450000000000000e+04
2.495559999999999778e+00,8.575450000000000000e+04
2.496230000000000171e+00,8.880989999999999418e+04
2.496890000000000054e+00,9.165030000000000291e+04
2.497550000000000381e+00,9.430239999999999418e+04
2.498210000000000264e+00,9.678480000000000291e+04
2.498880000000000212e+00,9.912400000000000000e+04
2.499540000000000095e+00,1.013340000000000000e+05
2.500199999999999978e+00,1.034370000000000000e+05
2.500860000000000305e+00,1.054510000000000000e+05
2.501530000000000253e+00,1.073730000000000000e+05
2.502190000000000136e+00,1.092180000000000000e+05
2.502850000000000019e+00,1.110050000000000000e+05
2.503519999999999968e+00,1.127260000000000000e+05
2.504179999999999851e+00,1.143800000000000000e+05
2.504840000000000177e+00,1.159870000000000000e+05
2.505500000000000060e+00,1.175560000000000000e+05
2.506170000000000009e+00,1.190790000000000000e+05
2.506829999999999892e+00,1.205560000000000000e+05
2.507489999999999775e+00,1.219970000000000000e+05
2.508150000000000102e+00,1.234130000000000000e+05
2.508820000000000050e+00,1.247920000000000000e+05
2.509479999999999933e+00,1.261240000000000000e+05
2.510139999999999816e+00,1.274310000000000000e+05
2.510800000000000143e+00,1.287170000000000000e+05
2.511469999999999647e+00,1.299660000000000000e+05
2.512129999999999974e+00,1.311790000000000000e+05
2.512789999999999857e+00,1.323680000000000000e+05
2.513449999999999740e+00,1.335470000000000000e+05
2.514120000000000132e+00,1.346980000000000000e+05
2.514780000000000459e+00,1.358120000000000000e+05
2.515439999999999898e+00,1.369140000000000000e+05
2.516099999999999781e+00,1.380100000000000000e+05
2.516770000000000174e+00,1.390770000000000000e+05
2.517430000000000057e+00,1.401080000000000000e+05
2.518090000000000384e+00,1.411320000000000000e+05
2.518750000000000266e+00,1.421450000000000000e+05
2.519420000000000215e+00,1.431310000000000000e+05
2.520080000000000098e+00,1.440970000000000000e+05
2.520739999999999981e+00,1.450560000000000000e+05
2.521409999999999929e+00,1.460110000000000000e+05
2.522070000000000256e+00,1.469470000000000000e+05
2.522730000000000139e+00,1.478580000000000000e+05
2.523390000000000022e+00,1.487710000000000000e+05
2.524059999999999970e+00,1.496770000000000000e+05
2.524719999999999853e+00,1.505660000000000000e+05
2.525380000000000180e+00,1.514470000000000000e+05
2.526040000000000063e+00,1.523120000000000000e+05
2.526710000000000012e+00,1.531660000000000000e+05
2.527369999999999894e+00,1.540220000000000000e+05
2.528030000000000221e+00,1.548740000000000000e+05
2.528690000000000104e+00,1.557110000000000000e+05
2.529360000000000053e+00,1.565420000000000000e+05
2.530019999999999936e+00,1.573770000000000000e+05
2.530679999999999819e+00,1.582150000000000000e+05
2.531340000000000146e+00,1.590330000000000000e+05
2.532010000000000094e+00,1.598360000000000000e+05
2.532669999999999977e+00,1.606550000000000000e+05
2.533329999999999860e+00,1.614690000000000000e+05
2.533989999999999743e+00,1.622540000000000000e+05
2.534659999999999691e+00,1.630430000000000000e+05
2.535320000000000018e+00,1.638420000000000000e+05
2.535979999999999901e+00,1.646300000000000000e+05
2.536639999999999784e+00,1.654070000000000000e+05
2.537310000000000176e+00,1.661870000000000000e+05
2.537970000000000059e+00,1.669740000000000000e+05
2.538629999999999942e+00,1.677580000000000000e+05
2.539289999999999825e+00,1.685240000000000000e+05
2.539960000000000218e+00,1.692830000000000000e+05
2.540620000000000100e+00,1.700610000000000000e+05
2.541280000000000427e+00,1.708300000000000000e+05
2.541949999999999932e+00,1.715730000000000000e+05
2.542610000000000259e+00,1.723250000000000000e+05
2.543270000000000142e+00,1.730890000000000000e+05
2.543930000000000025e+00,1.738410000000000000e+05
2.544599999999999973e+00,1.745860000000000000e+05
2.545260000000000300e+00,1.753360000000000000e+05
2.545920000000000183e+00,1.760950000000000000e+05
2.546580000000000066e+00,1.768530000000000000e+05
2.547250000000000014e+00,1.775950000000000000e+05
2.547909999999999897e+00,1.783280000000000000e+05
2.548570000000000224e+00,1.790690000000000000e+05
2.549230000000000107e+00,1.798130000000000000e+05
2.549900000000000055e+00,1.805450000000000000e+05
2.550559999999999938e+00,1.812680000000000000e+05
2.551219999999999821e+00,1.819960000000000000e+05
2.551880000000000148e+00,1.827420000000000000e+05
2.552550000000000097e+00,1.834770000000000000e+05
2.553209999999999980e+00,1.842040000000000000e+05
2.553869999999999862e+00,1.849310000000000000e+05
2.554530000000000189e+00,1.856520000000000000e+05
2.555199999999999694e+00,1.863730000000000000e+05
2.555860000000000021e+00,1.870780000000000000e+05
2.556519999999999904e+00,1.877760000000000000e+05
2.557179999999999787e+00,1.884810000000000000e+05
2.557850000000000179e+00,1.891750000000000000e+05
2.558510000000000062e+00,1.898520000000000000e+05
2.559169999999999945e+00,1.905370000000000000e+05
2.559840000000000337e+00,1.912290000000000000e+05
2.560500000000000220e+00,1.919010000000000000e+05
2.561160000000000103e+00,1.925590000000000000e+05
2.561820000000000430e+00,1.932170000000000000e+05
2.562489999999999934e+00,1.938600000000000000e+05
2.563150000000000261e+00,1.944910000000000000e+05
2.563810000000000144e+00,1.951020000000000000e+05
2.564470000000000027e+00,1.956950000000000000e+05
2.565139999999999976e+00,1.962890000000000000e+05
2.565800000000000303e+00,1.968660000000000000e+05
2.566460000000000186e+00,1.974140000000000000e+05
2.567120000000000068e+00,1.979570000000000000e+05
2.567790000000000017e+00,1.985030000000000000e+05
2.568449999999999900e+00,1.990290000000000000e+05
2.569110000000000227e+00,1.995160000000000000e+05
2.569770000000000110e+00,1.999860000000000000e+05
2.570440000000000058e+00,2.004470000000000000e+05
2.571099999999999941e+00,2.008970000000000000e+05
2.571760000000000268e+00,2.013220000000000000e+05
2.572420000000000151e+00,2.017050000000000000e+05
2.573090000000000099e+00,2.020870000000000000e+05
2.573749999999999982e+00,2.024680000000000000e+05
2.574409999999999865e+00,2.028200000000000000e+05
2.575070000000000192e+00,2.031430000000000000e+05
2.575739999999999696e+00,2.034640000000000000e+05
2.576400000000000023e+00,2.037840000000000000e+05
2.577059999999999906e+00,2.040600000000000000e+05
2.577729999999999855e+00,2.043100000000000000e+05
2.578389999999999738e+00,2.045640000000000000e+05
2.579050000000000065e+00,2.048080000000000000e+05
2.579709999999999948e+00,2.050190000000000000e+05
2.580380000000000340e+00,2.051960000000000000e+05
2.581040000000000223e+00,2.053800000000000000e+05
2.581699999999999662e+00,2.055690000000000000e+05
2.582359999999999989e+00,2.057360000000000000e+05
2.583030000000000381e+00,2.058770000000000000e+05
2.583690000000000264e+00,2.060240000000000000e+05
2.584350000000000147e+00,2.061670000000000000e+05
2.585010000000000474e+00,2.062800000000000000e+05
2.585679999999999978e+00,2.063870000000000000e+05
2.586340000000000305e+00,2.064880000000000000e+05
2.586989999999999679e+00,2.065850000000000000e+05
2.587639999999999940e+00,2.066810000000000000e+05
2.588270000000000071e+00,2.067570000000000000e+05
2.588909999999999823e+00,2.068230000000000000e+05
2.589530000000000332e+00,2.069010000000000000e+05
2.590149999999999952e+00,2.069630000000000000e+05
2.590770000000000017e+00,2.069990000000000000e+05
2.591380000000000017e+00,2.070660000000000000e+05
2.591979999999999951e+00,2.071450000000000000e+05
2.592579999999999885e+00,2.072290000000000000e+05
2.593170000000000197e+00,2.073170000000000000e+05
2.593750000000000000e+00,2.073780000000000000e+05
2.594329999999999803e+00,2.074440000000000000e+05
2.594899999999999984e+00,2.075400000000000000e+05
2.595469999999999722e+00,2.076270000000000000e+05
2.596030000000000282e+00,2.077050000000000000e+05
2.596590000000000398e+00,2.078120000000000000e+05
2.597140000000000004e+00,2.079300000000000000e+05
2.597679999999999989e+00,2.080410000000000000e+05
2.598219999999999974e+00,2.081420000000000000e+05
2.598760000000000403e+00,2.082640000000000000e+05
2.599289999999999878e+00,2.084180000000000000e+05
2.599810000000000176e+00,2.085800000000000000e+05
2.600330000000000030e+00,2.087210000000000000e+05
2.600840000000000263e+00,2.088750000000000000e+05
2.601350000000000051e+00,2.090710000000000000e+05
2.601860000000000284e+00,2.092770000000000000e+05
2.602349999999999941e+00,2.094760000000000000e+05
2.602850000000000108e+00,2.096790000000000000e+05
2.603340000000000209e+00,2.099160000000000000e+05
2.603820000000000245e+00,2.101550000000000000e+05
2.604300000000000281e+00,2.104020000000000000e+05
2.604770000000000252e+00,2.106710000000000000e+05
2.605239999999999778e+00,2.109500000000000000e+05
2.605710000000000193e+00,2.112420000000000000e+05
2.606170000000000098e+00,2.115460000000000000e+05
2.606619999999999937e+00,2.118680000000000000e+05
2.607079999999999842e+00,2.122010000000000000e+05
2.607520000000000060e+00,2.125440000000000000e+05
2.607969999999999899e+00,2.128900000000000000e+05
2.608400000000000052e+00,2.132710000000000000e+05
2.608840000000000270e+00,2.136620000000000000e+05
