x(m),wallP(Pa)
2.350499629999999840e+00,2.056550993000000290e+03
2.351169586000000145e+00,2.056551637000000028e+03
2.351839542000000005e+00,2.056553051999999752e+03
2.352509498999999948e+00,2.056554854999999861e+03
2.353179454999999809e+00,2.056557299999999941e+03
2.353849411000000114e+00,2.056559871999999814e+03
2.354519366999999974e+00,2.056564119000000119e+03
2.355189322999999835e+00,2.056568748000000141e+03
2.355859279999999778e+00,2.056573374000000058e+03
2.356529236000000083e+00,2.056578125999999884e+03
2.357199191999999943e+00,2.056583391000000120e+03
2.357869147999999804e+00,2.056590067000000090e+03
2.358538865999999956e+00,2.056596996000000217e+03
2.359208821999999817e+00,2.056604178000000047e+03
2.359878778000000121e+00,2.056611998999999741e+03
2.360548735000000065e+00,2.056619944000000032e+03
2.361218690999999925e+00,2.056628396999999950e+03
2.361888646999999786e+00,2.056636976000000232e+03
2.362558603000000090e+00,2.056646061999999802e+03
2.363228558999999951e+00,2.056655269999999746e+03
2.363898515999999894e+00,2.056664604000000054e+03
2.364568472000000199e+00,2.056674058000000059e+03
2.365238428000000059e+00,2.056683764000000338e+03
2.365908383999999920e+00,2.056693464999999833e+03
2.366578340999999863e+00,2.056703032000000348e+03
2.367248297000000168e+00,2.056712850999999773e+03
2.367918253000000028e+00,2.056722151000000395e+03
2.368588208999999889e+00,2.056731829999999718e+03
2.369258165000000194e+00,2.056741118999999799e+03
2.369928122000000137e+00,2.056750148000000081e+03
2.370598077999999997e+00,2.056759172000000035e+03
2.371268033999999858e+00,2.056767678000000160e+03
2.371937752000000010e+00,2.056776052000000163e+03
2.372607707999999871e+00,2.056784037999999782e+03
2.373277664000000176e+00,2.056791890999999850e+03
2.373947620000000036e+00,2.056799230000000080e+03
2.374617576999999979e+00,2.056806180999999924e+03
2.375287532999999840e+00,2.056812745000000177e+03
2.375957489000000145e+00,2.056819051000000400e+03
2.376627445000000005e+00,2.056824968999999783e+03
2.377297400999999866e+00,2.056829992999999831e+03
2.377967357999999809e+00,2.056835523000000194e+03
2.378637314000000114e+00,2.056840537999999924e+03
2.379307269999999974e+00,2.056844278999999915e+03
2.379977225999999835e+00,2.056848527000000104e+03
2.380647182000000139e+00,2.056851625000000240e+03
2.381317139000000083e+00,2.056853958000000148e+03
2.381987094999999943e+00,2.056857179999999971e+03
2.382657050999999804e+00,2.056859637000000021e+03
2.383327007000000108e+00,2.056861585000000105e+03
2.383996964000000052e+00,2.056863402999999835e+03
2.384666919999999912e+00,2.056864837999999963e+03
2.385336636999999982e+00,2.056865891999999803e+03
2.386006593999999925e+00,2.056866566000000148e+03
2.386676549999999786e+00,2.056867107999999917e+03
2.387346506000000090e+00,2.056867272999999841e+03
2.388016461999999951e+00,2.056867310000000089e+03
2.388686418999999894e+00,2.056867091999999957e+03
2.389356375000000199e+00,2.056866747000000032e+03
2.390026331000000059e+00,2.056866149000000405e+03
2.390696286999999920e+00,2.056865296999999828e+03
2.391366242999999780e+00,2.056863939999999729e+03
2.392036200000000168e+00,2.056862708000000111e+03
2.392706156000000028e+00,2.056860972999999831e+03
2.393376111999999889e+00,2.056859997000000021e+03
2.394046068000000194e+00,2.056858388000000105e+03
2.394716024000000054e+00,2.056855515000000196e+03
2.395385980999999997e+00,2.056853528000000097e+03
2.396055936999999858e+00,2.056851290999999947e+03
2.396725893000000163e+00,2.056849054000000251e+03
2.397395849000000023e+00,2.056845555000000331e+03
2.398065804999999884e+00,2.056841676999999891e+03
2.398735523000000036e+00,2.056838938999999755e+03
2.399405478999999897e+00,2.056835570000000189e+03
2.400075435999999840e+00,2.056831698999999844e+03
2.400745392000000145e+00,2.056827575999999681e+03
2.401415348000000005e+00,2.056823331000000053e+03
2.402085303999999866e+00,2.056818581999999878e+03
2.402755260000000170e+00,2.056813710000000356e+03
2.403425217000000114e+00,2.056808336000000054e+03
2.404095172999999974e+00,2.056802965000000313e+03
2.404765128999999835e+00,2.056796588000000156e+03
2.405435085000000139e+00,2.056791224000000057e+03
2.406105042000000083e+00,2.056784727000000203e+03
2.406774997999999943e+00,2.056777227000000039e+03
2.407444953999999804e+00,2.056769983000000138e+03
2.408114910000000108e+00,2.056762743999999657e+03
2.408784865999999969e+00,2.056754500000000007e+03
2.409454822999999912e+00,2.056746136000000206e+03
2.410124779000000217e+00,2.056737523999999667e+03
2.410794735000000077e+00,2.056729420000000118e+03
2.411464690999999938e+00,2.056719938000000184e+03
2.412134646999999799e+00,2.056709832000000006e+03
2.412804364999999951e+00,2.056700108999999884e+03
2.413474320999999811e+00,2.056690141999999923e+03
2.414144278000000199e+00,2.056679298000000017e+03
2.414814234000000059e+00,2.056669341000000259e+03
2.415484189999999920e+00,2.056658762000000024e+03
2.416154145999999781e+00,2.056647058999999899e+03
2.416824102000000085e+00,2.056635612000000037e+03
2.417494059000000028e+00,2.056624423999999635e+03
2.418164014999999889e+00,2.056612991999999849e+03
2.418833971000000194e+00,2.056601688999999624e+03
2.419503927000000054e+00,2.056589892999999847e+03
2.420173882999999915e+00,2.056578228999999737e+03
2.420843839999999858e+00,2.056566446000000269e+03
2.421513796000000163e+00,2.056554791999999907e+03
2.422183752000000023e+00,2.056543147000000317e+03
2.422853707999999884e+00,2.056531883999999991e+03
2.423523664000000188e+00,2.056520502000000306e+03
2.424193621000000132e+00,2.056509375999999975e+03
2.424863576999999992e+00,2.056498255999999856e+03
2.425533295000000145e+00,2.056487519000000248e+03
2.426203251000000005e+00,2.056477034999999887e+03
2.426873206999999866e+00,2.056466932999999699e+03
2.427543163000000170e+00,2.056457087000000229e+03
2.428213120000000114e+00,2.056447620999999799e+03
2.428883075999999974e+00,2.056438285000000178e+03
2.429553031999999835e+00,2.056429452000000310e+03
2.430222988000000139e+00,2.056420873999999912e+03
2.430892944000000000e+00,2.056412800999999945e+03
2.431562900999999943e+00,2.056405353000000105e+03
2.432232856999999804e+00,2.056398161999999957e+03
2.432902813000000108e+00,2.056391472000000249e+03
2.433572768999999969e+00,2.056384909000000334e+03
2.434242724999999830e+00,2.056379845999999816e+03
2.434912682000000217e+00,2.056372170000000096e+03
2.435582638000000077e+00,2.056370598999999856e+03
2.436252593999999938e+00,2.056359445999999934e+03
2.436922549999999799e+00,2.056384131999999681e+03
2.437592506000000103e+00,2.056429457000000184e+03
2.438262463000000047e+00,2.056577850000000126e+03
2.438932418999999907e+00,2.055890813999999864e+03
2.439602137000000059e+00,2.056326387000000068e+03
2.440272092999999920e+00,2.056385346000000027e+03
2.440942048999999781e+00,2.056382904999999937e+03
2.441612005000000085e+00,2.056373759000000064e+03
2.442281960999999946e+00,2.056367225999999846e+03
2.442951917999999889e+00,2.056363800000000083e+03
2.443621874000000194e+00,2.056361738000000059e+03
2.444291830000000054e+00,2.056362532000000101e+03
2.444961785999999915e+00,2.056366178999999647e+03
2.445631742000000219e+00,2.056369452000000365e+03
2.446301699000000163e+00,2.056371729999999843e+03
2.446971655000000023e+00,2.056373761000000286e+03
2.447641610999999884e+00,2.056377771000000394e+03
2.448311567000000188e+00,2.056382771000000048e+03
2.448981524000000132e+00,2.056386777000000166e+03
2.449651479999999992e+00,2.056390409000000091e+03
2.450321435999999853e+00,2.056395526000000245e+03
2.450991392000000157e+00,2.056401131999999961e+03
2.451661348000000018e+00,2.056405748000000131e+03
2.452331304999999961e+00,2.056409743000000162e+03
2.453001022000000031e+00,2.056413859000000230e+03
2.453670978999999974e+00,2.056419454999999743e+03
2.454340934999999835e+00,2.056425170999999864e+03
2.455010891000000139e+00,2.056429651000000376e+03
2.455680847000000000e+00,2.056433510000000297e+03
2.456350802999999861e+00,2.056438599999999951e+03
2.457020759999999804e+00,2.056444059999999808e+03
2.457690716000000108e+00,2.056448652000000038e+03
2.458360671999999969e+00,2.056452378999999837e+03
2.459030627999999830e+00,2.056456841999999597e+03
2.459700584000000134e+00,2.056461674000000130e+03
2.460370541000000078e+00,2.056466256000000158e+03
2.461040496999999938e+00,2.056469851000000290e+03
2.461710452999999799e+00,2.056473813000000064e+03
2.462380409000000103e+00,2.056478509999999915e+03
2.463050364999999964e+00,2.056482837000000018e+03
2.463720321999999907e+00,2.056486177000000225e+03
2.464390278000000212e+00,2.056490129999999681e+03
2.465060234000000072e+00,2.056494203999999627e+03
2.465729951999999781e+00,2.056496923000000152e+03
2.466399908000000085e+00,2.056496075000000019e+03
2.467069863999999946e+00,2.056496457000000191e+03
2.467739819999999806e+00,2.056557047000000239e+03
2.468409777000000194e+00,2.056915371000000050e+03
2.469079733000000054e+00,2.058984092000000146e+03
2.469749688999999915e+00,2.065007248000000345e+03
2.470419645000000219e+00,2.092843301999999767e+03
2.471089602000000163e+00,2.216401975000000220e+03
2.471759558000000023e+00,2.639346093000000110e+03
2.472429513999999884e+00,3.138673960000000079e+03
2.473099470000000188e+00,3.545960892000000058e+03
2.473769426000000049e+00,3.874850492000000031e+03
2.474439382999999992e+00,4.160025534999999763e+03
2.475109338999999853e+00,4.412091817000000447e+03
2.475779295000000158e+00,4.637762891999999738e+03
2.476449251000000018e+00,4.842176821999999447e+03
2.477119206999999879e+00,5.028741688000000067e+03
2.477789163999999822e+00,5.200005465000000186e+03
2.478459120000000127e+00,5.357714495000000170e+03
2.479129075999999987e+00,5.504041223000000173e+03
2.479798794000000139e+00,5.640583018999999695e+03
2.480468750000000000e+00,5.768849944000000505e+03
2.481138705999999861e+00,5.889905580999999984e+03
2.481808662000000165e+00,6.004560187000000042e+03
2.482478619000000108e+00,6.113569161000000349e+03
2.483148574999999969e+00,6.217683449000000110e+03
2.483818530999999830e+00,6.317498578000000634e+03
2.484488487000000134e+00,6.413649260999999569e+03
2.485158442999999995e+00,6.506344900000000052e+03
2.485828399999999938e+00,6.596315296000000671e+03
2.486498355999999799e+00,6.683440214000000196e+03
2.487168312000000103e+00,6.768440767999999480e+03
2.487838267999999964e+00,6.850975285999999869e+03
2.488508223999999824e+00,6.931694825000000492e+03
2.489178181000000212e+00,7.010256666000000223e+03
2.489848137000000072e+00,7.087281211999999869e+03
2.490518092999999933e+00,7.162415163000000575e+03
2.491188048999999793e+00,7.236230179999999564e+03
2.491858006000000181e+00,7.308410444000000098e+03
2.492527722999999806e+00,7.379438547000000653e+03
2.493197680000000194e+00,7.449081804999999804e+03
2.493867636000000054e+00,7.517681972000000314e+03
2.494537591999999915e+00,7.585091496000000006e+03
2.495207548000000219e+00,7.651552918000000318e+03
2.495877504000000080e+00,7.716969329000000471e+03
2.496547461000000023e+00,7.781533948999999666e+03
2.497217416999999884e+00,7.845165872999999920e+03
2.497887373000000188e+00,7.907977530000000115e+03
2.498557329000000049e+00,7.969926828000000569e+03
2.499227284999999910e+00,8.031100922000000537e+03
2.499897241999999853e+00,8.091481463999999505e+03
2.500567198000000158e+00,8.151138461000000461e+03
2.501237154000000018e+00,8.210061340999998720e+03
2.501907109999999879e+00,8.268294329000000289e+03
2.502577066000000183e+00,8.325824391999998625e+03
2.503247023000000127e+00,8.382673426999999720e+03
2.503916978999999987e+00,8.438824555999999575e+03
2.504586934999999848e+00,8.494293832999999722e+03
2.505256891000000152e+00,8.549093392999999196e+03
2.505926847000000013e+00,8.603224758000000293e+03
2.506596565000000165e+00,8.656878149000000121e+03
2.507266521000000026e+00,8.709694996000000174e+03
2.507936477999999969e+00,8.765042949000000590e+03
2.508606433999999830e+00,8.815264365999999427e+03
2.509276390000000134e+00,8.868641432000000350e+03
2.509946345999999995e+00,8.921469144999999116e+03
2.510616301999999855e+00,8.972997065999999904e+03
2.511286258999999799e+00,9.024329412000000957e+03
2.511956215000000103e+00,9.075155400999999983e+03
2.512626170999999964e+00,9.125650159999999232e+03
2.513296126999999824e+00,9.175795636000000741e+03
2.513966084000000212e+00,9.225638413000000583e+03
2.514636040000000072e+00,9.275199963000000935e+03
2.515305995999999933e+00,9.324509558000001562e+03
2.515975951999999793e+00,9.373588379999999233e+03
2.516645908000000098e+00,9.422461782999998832e+03
2.517315865000000041e+00,9.471148240000000442e+03
2.517985820999999902e+00,9.519664282000001549e+03
2.518655777000000207e+00,9.568022564999999304e+03
2.519325733000000067e+00,9.616231880000001183e+03
2.519995451000000219e+00,9.664297164000001430e+03
2.520665407000000080e+00,9.712222545999999056e+03
2.521335362999999941e+00,9.760005874999998923e+03
2.522005319999999884e+00,9.807644549999999072e+03
2.522675276000000189e+00,9.855136757000000216e+03
2.523345232000000049e+00,9.902476847999998427e+03
2.524015187999999910e+00,9.949662053000000014e+03
2.524685144000000214e+00,9.996688669999999547e+03
2.525355101000000158e+00,1.004355490000000100e+04
2.526025057000000018e+00,1.009026300000000083e+04
2.526695012999999879e+00,1.013681265999999960e+04
2.527364969000000183e+00,1.018320712000000094e+04
2.528034925000000044e+00,1.022945414999999957e+04
2.528704881999999987e+00,1.027555964999999924e+04
2.529374837999999848e+00,1.032153236000000106e+04
2.530044794000000152e+00,1.036738195999999880e+04
2.530714750000000013e+00,1.041312100999999893e+04
2.531384705999999873e+00,1.045875917999999911e+04
2.532054662999999817e+00,1.050430640999999923e+04
2.532724619000000121e+00,1.054977279000000090e+04
2.533394336999999830e+00,1.059517296999999962e+04
2.534064293000000134e+00,1.064051659999999902e+04
2.534734248999999995e+00,1.068581138000000101e+04
2.535404204999999855e+00,1.073106978999999956e+04
2.536074161999999799e+00,1.077629758000000038e+04
2.536744118000000103e+00,1.082150244000000021e+04
2.537414073999999964e+00,1.086669329000000107e+04
2.538084029999999824e+00,1.091187051000000065e+04
2.538753986000000129e+00,1.095704011999999966e+04
2.539423943000000072e+00,1.100220404000000053e+04
2.540093898999999933e+00,1.104736229000000094e+04
2.540763854999999793e+00,1.109251581000000078e+04
2.541433811000000098e+00,1.113766080000000147e+04
2.542103766999999959e+00,1.118279629999999997e+04
2.542773723999999902e+00,1.122791694999999891e+04
2.543443680000000207e+00,1.127301445000000058e+04
2.544113636000000067e+00,1.131808438000000024e+04
2.544783591999999928e+00,1.136311818000000130e+04
2.545453547999999788e+00,1.140810637000000133e+04
2.546123505000000176e+00,1.145304133000000002e+04
2.546793221999999801e+00,1.149791075000000092e+04
2.547463179000000189e+00,1.154270514000000003e+04
2.548133135000000049e+00,1.158741543999999885e+04
2.548803090999999910e+00,1.163202667999999903e+04
2.549473047000000214e+00,1.167653073000000040e+04
2.550143003000000075e+00,1.172091626999999971e+04
2.550812960000000018e+00,1.176517199000000073e+04
2.551482915999999879e+00,1.180928940999999941e+04
2.552152872000000183e+00,1.185325536000000102e+04
2.552822828000000044e+00,1.189706426999999894e+04
2.553492784999999987e+00,1.194070576999999867e+04
2.554162740999999848e+00,1.198416812000000027e+04
2.554832697000000152e+00,1.202745245000000068e+04
2.555502653000000013e+00,1.207054421000000002e+04
2.556172608999999873e+00,1.211343493999999919e+04
2.556842565999999817e+00,1.215612389000000076e+04
2.557512522000000121e+00,1.219860551999999916e+04
2.558182477999999982e+00,1.224087335999999959e+04
2.558852433999999842e+00,1.228292282999999952e+04
2.559522390000000147e+00,1.232475172000000020e+04
2.560192107999999855e+00,1.236635454000000027e+04
2.560862064000000160e+00,1.240772813999999926e+04
2.561532021000000103e+00,1.244887082999999984e+04
2.562201976999999964e+00,1.248977992000000086e+04
2.562871932999999824e+00,1.253045369000000028e+04
2.563541889000000129e+00,1.257088858999999866e+04
2.564211844999999990e+00,1.261108476000000155e+04
2.564881801999999933e+00,1.265104101999999875e+04
2.565551757999999793e+00,1.269075276999999915e+04
2.566221714000000098e+00,1.273022069999999985e+04
2.566891669999999959e+00,1.276944310999999834e+04
2.567561625999999819e+00,1.280841829000000143e+04
2.568231583000000207e+00,1.284714458000000013e+04
2.568901539000000067e+00,1.288562308999999914e+04
2.569571494999999928e+00,1.292385023999999976e+04
2.570241450999999788e+00,1.296182678000000124e+04
2.570911407000000093e+00,1.299954897999999957e+04
2.571581364000000036e+00,1.303701663000000008e+04
2.572251319999999897e+00,1.307422713999999905e+04
2.572921276000000201e+00,1.311118065999999999e+04
2.573590993999999910e+00,1.314787461000000076e+04
2.574260950000000214e+00,1.318430726000000141e+04
2.574930906000000075e+00,1.322047789999999986e+04
2.575600863000000018e+00,1.325637694999999985e+04
2.576270818999999879e+00,1.329202418000000034e+04
2.576940775000000183e+00,1.332732434999999896e+04
2.577610731000000044e+00,1.336272944999999891e+04
2.578280686999999904e+00,1.339707274999999936e+04
2.578950643999999848e+00,1.343179796999999962e+04
2.579620600000000152e+00,1.346609797000000071e+04
2.580290556000000013e+00,1.350003137000000061e+04
2.580960511999999873e+00,1.353369149999999900e+04
2.581630468000000178e+00,1.356704442000000017e+04
2.582300425000000121e+00,1.360009387000000061e+04
2.582970380999999982e+00,1.363283128000000033e+04
2.583640336999999843e+00,1.366525125999999909e+04
2.584310293000000147e+00,1.369734842000000026e+04
2.584980249000000008e+00,1.372911271999999917e+04
2.585650205999999951e+00,1.376054154999999992e+04
2.586320161999999812e+00,1.379162679000000026e+04
2.586989879999999964e+00,1.382235992000000078e+04
2.587659835999999824e+00,1.385273337999999967e+04
2.588329792000000129e+00,1.388273876000000018e+04
2.588999747999999990e+00,1.391236974999999984e+04
2.589669703999999850e+00,1.394161633999999867e+04
2.590339660999999793e+00,1.397047040000000015e+04
2.591009617000000098e+00,1.399892381000000023e+04
2.591679572999999959e+00,1.402696659000000000e+04
2.592349528999999819e+00,1.405459223000000020e+04
2.593019485000000124e+00,1.408178756999999860e+04
2.593689442000000067e+00,1.410854518000000098e+04
2.594359397999999928e+00,1.413485419999999976e+04
2.595029353999999788e+00,1.416070745999999963e+04
2.595699310000000093e+00,1.418609415000000081e+04
2.596369267000000036e+00,1.421100619000000006e+04
2.597039222999999897e+00,1.423543459000000075e+04
2.597709179000000201e+00,1.425937204999999994e+04
2.598379135000000062e+00,1.428280915000000095e+04
2.599049090999999923e+00,1.430573668999999973e+04
2.599719047999999866e+00,1.432815040999999837e+04
2.600388764999999935e+00,1.435004140000000007e+04
2.601058721999999879e+00,1.437140536000000066e+04
2.601728678000000183e+00,1.439223804999999993e+04
2.602398634000000044e+00,1.441253709000000163e+04
2.603068589999999904e+00,1.443229637999999977e+04
2.603738546000000209e+00,1.445152539000000070e+04
2.604408503000000152e+00,1.447021477999999843e+04
2.605078459000000013e+00,1.448837121999999908e+04
2.605748414999999873e+00,1.450600165999999990e+04
2.606418371000000178e+00,1.452311210000000028e+04
2.607088327000000039e+00,1.453971406999999999e+04
2.607758283999999982e+00,1.455582101999999941e+04
2.608428239999999843e+00,1.457145004999999946e+04
2.609098196000000147e+00,1.458662269999999990e+04
2.609768152000000008e+00,1.460136022000000048e+04
2.610438107999999868e+00,1.461569707999999991e+04
2.611108064999999812e+00,1.462966334999999890e+04
2.611778021000000116e+00,1.464330386999999973e+04
2.612447976999999977e+00,1.465666161999999895e+04
2.613117932999999837e+00,1.466979529999999977e+04
2.613787650999999990e+00,1.468276260999999977e+04
2.614457606999999850e+00,1.469563772000000063e+04
2.615127563000000155e+00,1.470849714000000131e+04
2.615797520000000098e+00,1.472143253000000004e+04
2.616467475999999959e+00,1.473454671000000053e+04
2.617137431999999819e+00,1.474795358000000124e+04
