x(m),wallHeatFlux(W/m2)
0.000000000000000000e+00,2.816383200000000186e+06
6.215620700000000281e-04,1.992109199999999953e+06
1.243124099999999999e-03,9.931561199999999953e+05
1.864686300000000050e-03,7.447133800000000047e+05
2.486248300000000033e-03,6.322445000000000000e+05
3.107810400000000049e-03,5.634731199999999953e+05
3.729372500000000066e-03,5.115331199999999953e+05
4.350934600000000083e-03,4.724507199999999721e+05
4.972496499999999597e-03,4.404606900000000023e+05
5.594058899999999716e-03,4.127838099999999977e+05
6.215620800000000098e-03,3.904244400000000023e+05
6.837182699999999613e-03,3.720763099999999977e+05
7.458745000000000132e-03,3.552451599999999744e+05
8.080307400000000251e-03,3.405156199999999953e+05
8.701869299999999766e-03,3.275929400000000023e+05
9.323431199999999280e-03,3.159047199999999721e+05
9.944993100000000530e-03,3.051882500000000000e+05
1.056655500000000004e-02,2.956035300000000279e+05
1.118811800000000037e-02,2.871077800000000279e+05
1.180967999999999948e-02,2.794540900000000256e+05
1.243124200000000033e-02,2.726804400000000023e+05
1.305280299999999997e-02,2.665566599999999744e+05
1.367436500000000082e-02,2.610249500000000116e+05
1.429592799999999941e-02,2.563214400000000023e+05
1.491749000000000026e-02,2.524181400000000140e+05
1.553905199999999938e-02,2.490723399999999965e+05
1.616061499999999970e-02,2.462741199999999953e+05
1.678217599999999934e-02,2.442143599999999860e+05
1.740373900000000140e-02,2.430643599999999860e+05
1.802530000000000104e-02,2.425729400000000023e+05
1.864686200000000016e-02,2.423334400000000023e+05
1.926842499999999875e-02,2.425567300000000105e+05
1.988998599999999839e-02,2.434976099999999860e+05
2.051154900000000045e-02,2.445702000000000116e+05
2.113311000000000009e-02,2.455804800000000105e+05
2.175467299999999868e-02,2.467335000000000000e+05
2.237623600000000074e-02,2.477456099999999860e+05
2.299779700000000038e-02,2.486805499999999884e+05
2.361935899999999949e-02,2.494997200000000012e+05
2.424091999999999913e-02,2.500006400000000140e+05
2.486248300000000119e-02,2.503438099999999977e+05
2.548404599999999978e-02,2.504737799999999988e+05
2.610560699999999942e-02,2.504740199999999895e+05
2.672717000000000148e-02,2.503666600000000035e+05
2.734873100000000112e-02,2.499985899999999965e+05
2.797029399999999971e-02,2.495384700000000012e+05
2.859185599999999883e-02,2.490224200000000128e+05
2.921341699999999847e-02,2.483567999999999884e+05
2.983498000000000053e-02,2.476238900000000140e+05
3.045654100000000017e-02,2.468830799999999872e+05
3.107810399999999876e-02,2.460687999999999884e+05
3.169966500000000187e-02,2.452097500000000000e+05
3.232122999999999940e-02,2.442509800000000105e+05
3.294279099999999905e-02,2.431949500000000116e+05
3.356435099999999921e-02,2.422934700000000012e+05
3.418591599999999675e-02,2.413925199999999895e+05
3.480747700000000333e-02,2.403939400000000023e+05
3.542903800000000297e-02,2.393497500000000000e+05
3.605059900000000261e-02,2.383212799999999988e+05
3.667216400000000015e-02,2.373833900000000140e+05
3.729372499999999979e-02,2.364880599999999977e+05
3.791528599999999943e-02,2.355344500000000116e+05
3.853684999999999750e-02,2.344981700000000128e+05
3.915841099999999714e-02,2.335142999999999884e+05
3.977997199999999678e-02,2.325320000000000000e+05
4.040153700000000125e-02,2.315459800000000105e+05
4.102309800000000090e-02,2.306647699999999895e+05
4.164465900000000054e-02,2.298532500000000000e+05
4.226622000000000018e-02,2.289699100000000035e+05
4.288778499999999771e-02,2.280037699999999895e+05
4.350934599999999736e-02,2.270858299999999872e+05
4.413090599999999752e-02,2.261823599999999860e+05
4.475247100000000200e-02,2.252671600000000035e+05
4.537403200000000164e-02,2.243837300000000105e+05
4.599559300000000128e-02,2.235650899999999965e+05
4.661715799999999882e-02,2.228401400000000140e+05
4.723871899999999846e-02,2.220920799999999872e+05
4.786027999999999810e-02,2.212473599999999860e+05
4.848184099999999774e-02,2.204511900000000023e+05
4.910340500000000274e-02,2.197247999999999884e+05
4.972496600000000239e-02,2.189577500000000000e+05
5.034652700000000203e-02,2.182045199999999895e+05
5.096809199999999956e-02,2.174735799999999872e+05
5.158965299999999921e-02,2.168029100000000035e+05
5.221121399999999885e-02,2.161350199999999895e+05
5.283277900000000332e-02,2.154395899999999965e+05
5.345434000000000296e-02,2.147538299999999872e+05
5.407590000000000313e-02,2.140436199999999953e+05
5.469746100000000277e-02,2.133992300000000105e+05
5.531902600000000031e-02,2.127953299999999872e+05
5.594058699999999995e-02,2.121908399999999965e+05
5.656214799999999959e-02,2.117182200000000012e+05
5.718371299999999713e-02,2.112055299999999988e+05
5.780527399999999677e-02,2.106047799999999988e+05
5.842683500000000335e-02,2.100530799999999872e+05
5.904839900000000141e-02,2.094685799999999872e+05
5.966996000000000105e-02,2.088263800000000047e+05
6.029152100000000070e-02,2.082604800000000105e+05
6.091308200000000034e-02,2.077766600000000035e+05
6.153464699999999787e-02,2.072208599999999860e+05
6.215620799999999752e-02,2.066402799999999988e+05
6.277777299999999505e-02,2.061900199999999895e+05
6.339933000000000374e-02,2.057949800000000105e+05
6.402089399999999486e-02,2.052652699999999895e+05
6.464245899999999934e-02,2.047529400000000023e+05
6.526401599999999414e-02,2.043240499999999884e+05
6.588558099999999862e-02,2.039087000000000116e+05
6.650714600000000309e-02,2.034289200000000128e+05
6.712870299999999790e-02,2.029045199999999895e+05
6.775026800000000238e-02,2.024746400000000140e+05
6.837183199999999350e-02,2.020209200000000128e+05
6.899339000000000166e-02,2.015661099999999860e+05
6.961495400000000666e-02,2.011538900000000140e+05
7.023651200000000094e-02,2.007936400000000140e+05
7.085807600000000595e-02,2.004526600000000035e+05
7.147964099999999654e-02,1.999553399999999965e+05
7.210119800000000523e-02,1.994815899999999965e+05
7.272276299999999583e-02,1.991611700000000128e+05
7.334432800000000030e-02,1.987694400000000023e+05
7.396588499999999511e-02,1.983327500000000000e+05
7.458744900000000011e-02,1.979355599999999977e+05
7.520901400000000459e-02,1.975440299999999988e+05
7.583057099999999939e-02,1.971902799999999988e+05
7.645213600000000387e-02,1.967935000000000000e+05
7.707370099999999447e-02,1.963482999999999884e+05
7.769525800000000315e-02,1.959914800000000105e+05
7.831682299999999375e-02,1.956516700000000128e+05
7.893838699999999875e-02,1.952747000000000116e+05
7.955994500000000691e-02,1.949352799999999988e+05
8.018150899999999803e-02,1.946390499999999884e+05
8.080307400000000251e-02,1.943414100000000035e+05
8.142463099999999732e-02,1.939776400000000140e+05
8.204619600000000179e-02,1.935989200000000128e+05
8.266775299999999660e-02,1.932388900000000140e+05
8.328931800000000107e-02,1.928877300000000105e+05
8.391088200000000608e-02,1.925710199999999895e+05
8.453244000000000036e-02,1.922596900000000023e+05
8.515400400000000536e-02,1.919271600000000035e+05
8.577556899999999596e-02,1.916310799999999872e+05
8.639712600000000464e-02,1.913975199999999895e+05
8.701869099999999524e-02,1.911248099999999977e+05
8.764025599999999971e-02,1.907472699999999895e+05
8.826181299999999452e-02,1.904118299999999872e+05
8.888337799999999900e-02,1.901808299999999872e+05
8.950494200000000400e-02,1.898952999999999884e+05
9.012649999999999828e-02,1.896566600000000035e+05
9.074806400000000328e-02,1.893895599999999977e+05
9.136962899999999388e-02,1.890568900000000140e+05
9.199118600000000257e-02,1.888266900000000023e+05
9.261275099999999316e-02,1.885195299999999988e+05
9.323431599999999764e-02,1.882001600000000035e+05
9.385587300000000632e-02,1.880029800000000105e+05
9.447743699999999745e-02,1.877910299999999988e+05
9.509899500000000561e-02,1.875067300000000105e+05
9.572055899999999673e-02,1.872672799999999988e+05
9.634212400000000120e-02,1.870627200000000012e+05
9.696368099999999601e-02,1.868351199999999953e+05
9.758524600000000049e-02,1.866217000000000116e+05
9.820681100000000496e-02,1.864086099999999860e+05
9.882836799999999977e-02,1.861332999999999884e+05
9.944993300000000425e-02,1.859155599999999977e+05
1.000714999999999938e-01,1.857616700000000128e+05
1.006930500000000062e-01,1.854908900000000140e+05
1.013146199999999941e-01,1.852123399999999965e+05
1.019361800000000012e-01,1.849560799999999872e+05
1.025577399999999945e-01,1.847166600000000035e+05
1.031793099999999963e-01,1.845368399999999965e+05
1.038008700000000034e-01,1.842697699999999895e+05
1.044224299999999966e-01,1.840270899999999965e+05
1.050439900000000037e-01,1.838555799999999872e+05
1.056655600000000056e-01,1.835790499999999884e+05
1.062871100000000041e-01,1.833200499999999884e+05
1.069086800000000059e-01,1.831148800000000047e+05
1.075302399999999992e-01,1.829493299999999872e+05
1.081518000000000063e-01,1.827501199999999953e+05
1.087733699999999942e-01,1.825082000000000116e+05
1.093949200000000066e-01,1.823072799999999988e+05
1.100164899999999946e-01,1.821494500000000116e+05
1.106380500000000017e-01,1.820199500000000116e+05
1.112596099999999949e-01,1.817828099999999977e+05
1.118811700000000020e-01,1.815607000000000116e+05
1.125027400000000039e-01,1.813697300000000105e+05
1.131242999999999971e-01,1.810974500000000116e+05
1.137458600000000042e-01,1.808695499999999884e+05
1.143674300000000060e-01,1.806646400000000140e+05
1.149889800000000045e-01,1.804896600000000035e+05
1.156105500000000064e-01,1.803275599999999977e+05
1.162321099999999996e-01,1.800693099999999977e+05
1.168536700000000067e-01,1.798334500000000116e+05
1.174752299999999999e-01,1.797013099999999977e+05
1.180968000000000018e-01,1.795112699999999895e+05
1.187183599999999950e-01,1.792779800000000105e+05
1.193399200000000021e-01,1.791271099999999860e+05
1.199614799999999953e-01,1.790051199999999953e+05
1.205830400000000024e-01,1.788119400000000023e+05
1.212046100000000043e-01,1.785773099999999977e+05
1.218261600000000028e-01,1.784179700000000012e+05
1.224477300000000046e-01,1.783229700000000012e+05
1.230692899999999979e-01,1.781893599999999860e+05
1.236908500000000050e-01,1.779807200000000012e+05
1.243124200000000068e-01,1.777740899999999965e+05
1.249339800000000000e-01,1.776526400000000140e+05
1.255555499999999880e-01,1.775225299999999988e+05
1.261770999999999865e-01,1.773156900000000023e+05
1.267986600000000075e-01,1.771606900000000023e+05
1.274202299999999954e-01,1.770023399999999965e+05
1.280417899999999887e-01,1.768289100000000035e+05
1.286633500000000097e-01,1.767050899999999965e+05
1.292849199999999976e-01,1.765258399999999965e+05
1.299064799999999908e-01,1.763276700000000128e+05
1.305280299999999893e-01,1.762235799999999872e+05
1.311496000000000051e-01,1.761230499999999884e+05
1.317711599999999983e-01,1.760251099999999860e+05
1.323927199999999915e-01,1.758739400000000023e+05
1.330142900000000072e-01,1.757243800000000047e+05
1.336358500000000005e-01,1.757128099999999977e+05
1.342574099999999937e-01,1.756619800000000105e+05
1.348789800000000094e-01,1.755336700000000128e+05
1.355005400000000026e-01,1.754707300000000105e+05
1.361220900000000011e-01,1.754297300000000105e+05
1.367436599999999891e-01,1.753031900000000023e+05
1.373652200000000101e-01,1.751958399999999965e+05
1.379867800000000033e-01,1.751693900000000140e+05
1.386083399999999966e-01,1.751213099999999977e+05
1.392299100000000123e-01,1.750272999999999884e+05
1.398514700000000055e-01,1.749049800000000105e+05
1.404730200000000040e-01,1.747888299999999872e+05
1.410945999999999867e-01,1.747116199999999953e+05
1.417161500000000129e-01,1.746331199999999953e+05
1.423377100000000062e-01,1.745091099999999860e+05
1.429592799999999941e-01,1.743949200000000128e+05
1.435808399999999874e-01,1.743444500000000116e+05
1.442024000000000084e-01,1.742730299999999988e+05
1.448239699999999963e-01,1.741021700000000128e+05
1.454455299999999895e-01,1.739248599999999860e+05
1.460670799999999880e-01,1.738649800000000105e+05
1.466886599999999985e-01,1.738142999999999884e+05
1.473102099999999970e-01,1.736870599999999977e+05
1.479317699999999902e-01,1.736019700000000012e+05
1.485533400000000059e-01,1.735739500000000116e+05
1.491748999999999992e-01,1.734671400000000140e+05
1.497964599999999924e-01,1.733219700000000012e+05
1.504180300000000081e-01,1.732282699999999895e+05
1.510395900000000013e-01,1.732068099999999977e+05
1.516611399999999998e-01,1.731627200000000012e+05
1.522827099999999878e-01,1.730296199999999953e+05
1.529042700000000088e-01,1.729174700000000012e+05
1.535258300000000020e-01,1.728740799999999872e+05
1.541473999999999900e-01,1.727754200000000128e+05
1.547689600000000110e-01,1.726039800000000105e+05
1.553905200000000042e-01,1.724987000000000116e+05
1.560120899999999922e-01,1.724196199999999953e+05
1.566336500000000131e-01,1.722850199999999895e+05
1.572552000000000116e-01,1.721401099999999860e+05
1.578767699999999996e-01,1.719784700000000012e+05
1.584983299999999928e-01,1.718574200000000128e+05
1.591198900000000138e-01,1.717718599999999860e+05
1.597414600000000018e-01,1.716005799999999872e+05
1.603630199999999950e-01,1.714089800000000105e+05
1.609845799999999882e-01,1.712752000000000116e+05
1.616061500000000040e-01,1.711402300000000105e+05
1.622277099999999972e-01,1.709829400000000023e+05
1.628492599999999957e-01,1.708884700000000012e+05
1.634708199999999889e-01,1.707974500000000116e+05
1.640923900000000046e-01,1.706445799999999872e+05
1.647139499999999979e-01,1.704706700000000128e+05
1.653355099999999911e-01,1.703208299999999872e+05
1.659570800000000068e-01,1.702224100000000035e+05
1.665786400000000000e-01,1.700797300000000105e+05
1.672001899999999985e-01,1.699024800000000105e+05
1.678217599999999865e-01,1.697550799999999872e+05
1.684433200000000075e-01,1.695775899999999965e+05
1.690648800000000007e-01,1.694439800000000105e+05
1.696864499999999887e-01,1.693678299999999872e+05
1.703080100000000097e-01,1.692172200000000012e+05
1.709295700000000029e-01,1.689680599999999977e+05
1.715511399999999909e-01,1.687067799999999988e+05
1.721727000000000118e-01,1.685877999999999884e+05
1.727942500000000103e-01,1.685043399999999965e+05
1.734158199999999983e-01,1.682931400000000140e+05
1.740373799999999915e-01,1.680818099999999977e+05
1.746589400000000125e-01,1.679420299999999988e+05
1.752805100000000005e-01,1.677513399999999965e+05
1.759020699999999937e-01,1.674545000000000000e+05
1.765236299999999869e-01,1.672592799999999988e+05
1.771452000000000027e-01,1.671368099999999977e+05
1.777667599999999959e-01,1.669395299999999988e+05
1.783883099999999944e-01,1.667307999999999884e+05
1.790098800000000101e-01,1.665018800000000047e+05
1.796314400000000033e-01,1.663152799999999988e+05
1.802529999999999966e-01,1.661647200000000012e+05
1.808745700000000123e-01,1.659358099999999977e+05
1.814961300000000055e-01,1.657285000000000000e+05
1.821176899999999987e-01,1.655927300000000105e+05
1.827392599999999867e-01,1.653888099999999977e+05
1.833608200000000077e-01,1.651704100000000035e+05
1.839823700000000062e-01,1.650279800000000105e+05
1.846039399999999941e-01,1.648978299999999872e+05
1.852254999999999874e-01,1.646793399999999965e+05
1.858470600000000084e-01,1.644258099999999977e+05
1.864686299999999963e-01,1.641962799999999988e+05
1.870901899999999896e-01,1.639939800000000105e+05
1.877117500000000105e-01,1.638487500000000000e+05
1.883333000000000090e-01,1.636106400000000140e+05
1.889548699999999970e-01,1.633437799999999988e+05
1.895764299999999902e-01,1.631168800000000047e+05
1.901979900000000112e-01,1.629420000000000000e+05
1.908195599999999992e-01,1.627975599999999977e+05
1.914411199999999924e-01,1.625587200000000012e+05
1.920626800000000134e-01,1.622938299999999872e+05
1.926842500000000014e-01,1.620729800000000105e+05
1.933058099999999946e-01,1.619247699999999895e+05
1.939273599999999931e-01,1.617578299999999872e+05
1.945489300000000088e-01,1.614994500000000116e+05
1.951704900000000020e-01,1.612388900000000140e+05
1.957920499999999953e-01,1.610539200000000128e+05
1.964136200000000110e-01,1.608866700000000128e+05
1.970351800000000042e-01,1.606563800000000047e+05
1.976567399999999974e-01,1.604728800000000047e+05
1.982783100000000132e-01,1.603519100000000035e+05
1.988998700000000064e-01,1.601817000000000116e+05
1.995214200000000049e-01,1.599500199999999895e+05
2.001429899999999928e-01,1.597448599999999860e+05
2.007645500000000138e-01,1.595820899999999965e+05
2.013861100000000071e-01,1.594115000000000000e+05
2.020076799999999950e-01,1.592474100000000035e+05
2.026292399999999883e-01,1.590902699999999895e+05
2.032508000000000092e-01,1.589075299999999988e+05
2.038723699999999972e-01,1.587369800000000105e+05
2.044939199999999957e-01,1.585799100000000035e+05
2.051154799999999889e-01,1.583716400000000140e+05
2.057370500000000046e-01,1.582177699999999895e+05
2.063586099999999979e-01,1.581097699999999895e+05
2.069801699999999911e-01,1.579364200000000128e+05
2.076017400000000068e-01,1.577980499999999884e+05
2.082233000000000001e-01,1.576815899999999965e+05
2.088448599999999933e-01,1.575083599999999860e+05
2.094664300000000090e-01,1.573155499999999884e+05
2.100879800000000075e-01,1.571375199999999895e+05
2.107095400000000007e-01,1.569991900000000023e+05
2.113311099999999887e-01,1.568702000000000116e+05
2.119526700000000097e-01,1.567394700000000012e+05
2.125742300000000029e-01,1.566284100000000035e+05
2.131957899999999961e-01,1.564556199999999953e+05
2.138173600000000119e-01,1.562637000000000116e+05
2.144389200000000051e-01,1.561667999999999884e+05
2.150604700000000036e-01,1.560171400000000140e+05
2.156820399999999915e-01,1.557878800000000047e+05
2.163036000000000125e-01,1.556437699999999895e+05
2.169251600000000058e-01,1.555823800000000047e+05
2.175467299999999937e-01,1.554734700000000012e+05
2.181682899999999870e-01,1.552896199999999953e+05
2.187898500000000079e-01,1.551821700000000128e+05
2.194114199999999959e-01,1.551139200000000128e+05
2.200329799999999891e-01,1.550016199999999953e+05
2.206545299999999876e-01,1.548825000000000000e+05
2.212761000000000033e-01,1.547409200000000128e+05
2.218976599999999966e-01,1.546669500000000116e+05
2.225192199999999898e-01,1.546380299999999988e+05
2.231407900000000055e-01,1.545118399999999965e+05
2.237623499999999988e-01,1.543566900000000023e+05
2.243839099999999920e-01,1.543236099999999860e+05
2.250054800000000077e-01,1.542970299999999988e+05
2.256270300000000062e-01,1.541942799999999988e+05
2.262485899999999994e-01,1.541141400000000140e+05
2.268701599999999874e-01,1.540863299999999872e+05
2.274917200000000084e-01,1.540027200000000012e+05
2.281132800000000016e-01,1.538773399999999965e+05
2.287348499999999896e-01,1.537678099999999977e+05
2.293564100000000106e-01,1.537093099999999977e+05
2.299779700000000038e-01,1.536663599999999860e+05
2.305995399999999917e-01,1.535372300000000105e+05
2.312210899999999902e-01,1.534195499999999884e+05
2.318426500000000112e-01,1.533911700000000128e+05
2.324642199999999992e-01,1.533554400000000023e+05
2.330857799999999924e-01,1.532228399999999965e+05
2.337073400000000134e-01,1.531440499999999884e+05
2.343289100000000014e-01,1.531391099999999860e+05
2.349504699999999946e-01,1.530682699999999895e+05
2.355720299999999878e-01,1.529366600000000035e+05
2.361936000000000035e-01,1.528318599999999860e+05
2.368151500000000020e-01,1.527905299999999988e+05
2.374367099999999953e-01,1.527577000000000116e+05
2.380582699999999885e-01,1.526742799999999988e+05
2.386798400000000042e-01,1.525640799999999872e+05
2.393013999999999974e-01,1.525103800000000047e+05
2.399229599999999907e-01,1.524687200000000012e+05
2.405445300000000064e-01,1.523591199999999953e+05
2.411660899999999996e-01,1.523003299999999872e+05
2.417876399999999981e-01,1.522996099999999860e+05
2.424092100000000138e-01,1.522153800000000047e+05
2.430307700000000071e-01,1.521141700000000128e+05
2.436523300000000003e-01,1.520711600000000035e+05
2.442738999999999883e-01,1.520579500000000116e+05
2.448954600000000092e-01,1.520478599999999860e+05
2.455170200000000025e-01,1.519962999999999884e+05
2.461385899999999904e-01,1.519168900000000140e+05
2.467601399999999889e-01,1.519007699999999895e+05
2.473817000000000099e-01,1.519077300000000105e+05
