x(m),wallP(Pa)
2.250128098999999882e+00,1.543241810000000078e+04
2.250326609000000033e+00,1.543200737999999910e+04
2.250525119999999824e+00,1.543159331999999995e+04
2.250725418000000033e+00,1.543119391999999971e+04
2.250923928999999823e+00,1.543081186999999954e+04
2.251120653000000082e+00,1.543044868999999926e+04
2.251319163999999873e+00,1.543010680999999931e+04
2.251517675000000107e+00,1.542976925999999912e+04
2.251718078000000123e+00,1.542945038999999997e+04
2.251916588999999913e+00,1.542914897000000019e+04
2.252113207999999922e+00,1.542887840999999935e+04
2.252311718000000074e+00,1.542862603999999919e+04
2.252510228999999864e+00,1.542839364999999998e+04
2.252708740000000098e+00,1.542817559000000074e+04
2.252907250999999889e+00,1.542799445000000014e+04
2.253105762000000123e+00,1.542783122999999978e+04
2.253304272999999913e+00,1.542769205999999940e+04
2.253502784000000148e+00,1.542757130999999936e+04
2.253701294999999938e+00,1.542748683999999957e+04
2.253899806000000172e+00,1.542740769000000000e+04
2.254098316999999962e+00,1.542736896999999954e+04
2.254296827000000114e+00,1.542734765999999945e+04
2.254495337999999904e+00,1.542734624000000076e+04
2.254693849000000139e+00,1.542735814000000028e+04
2.254892359999999929e+00,1.542739337999999952e+04
2.255090871000000163e+00,1.542746659000000000e+04
2.255289381999999954e+00,1.542753893000000062e+04
2.255487893000000188e+00,1.542762484000000040e+04
2.255686403999999978e+00,1.542774049000000014e+04
2.255884915000000213e+00,1.542785498000000007e+04
2.256083426000000003e+00,1.542799696000000040e+04
2.256281936999999793e+00,1.542814537999999993e+04
2.256480446999999945e+00,1.542829220999999961e+04
2.256678958000000179e+00,1.542844808000000012e+04
2.256877468999999969e+00,1.542861074999999983e+04
2.257075980000000204e+00,1.542876571999999942e+04
2.257272427000000192e+00,1.542894074999999975e+04
2.257470937999999983e+00,1.542910679999999957e+04
2.257671513000000019e+00,1.542927872000000025e+04
2.257870023999999809e+00,1.542945379999999932e+04
2.258068535000000043e+00,1.542962016000000040e+04
2.258264973999999814e+00,1.542979627000000073e+04
2.258463485000000048e+00,1.542996046000000024e+04
2.258664067000000220e+00,1.543012797999999930e+04
2.258862578000000010e+00,1.543028153999999995e+04
2.259061088999999800e+00,1.543044087000000036e+04
2.259258890999999991e+00,1.543058778999999959e+04
2.259457401999999782e+00,1.543072515000000021e+04
2.259656622000000059e+00,1.543085502000000088e+04
2.259855132999999849e+00,1.543096282000000065e+04
2.260053644000000084e+00,1.543107726999999977e+04
2.260252808999999807e+00,1.543116731000000073e+04
2.260451320000000042e+00,1.543124543000000085e+04
2.260649175999999816e+00,1.543131072999999924e+04
2.260847687000000050e+00,1.543135599000000002e+04
2.261046197999999841e+00,1.543138921999999911e+04
2.261246725999999985e+00,1.543139507000000049e+04
2.261445237000000219e+00,1.543141275999999925e+04
2.261641731000000100e+00,1.543139443000000028e+04
2.261840241999999890e+00,1.543136643000000004e+04
2.262038753000000124e+00,1.543132832000000053e+04
2.262239295000000094e+00,1.543127766999999949e+04
2.262437805999999885e+00,1.543121556000000055e+04
2.262634284999999856e+00,1.543113459999999941e+04
2.262832796000000091e+00,1.543106399000000056e+04
2.263031306999999881e+00,1.543098113999999987e+04
2.263229818000000115e+00,1.543089444000000003e+04
2.263428328999999906e+00,1.543080262000000039e+04
2.263626840000000140e+00,1.543071558000000005e+04
2.263825350999999930e+00,1.543063450999999986e+04
2.264023862000000165e+00,1.543057495999999992e+04
2.264222372999999955e+00,1.543050361999999950e+04
2.264420884000000189e+00,1.543044722999999976e+04
2.264619393999999897e+00,1.543041117999999915e+04
2.264817905000000131e+00,1.543038912999999957e+04
2.265016415999999921e+00,1.543038303000000087e+04
2.265214927000000156e+00,1.543039057999999932e+04
2.265413437999999946e+00,1.543041926000000058e+04
2.265611949000000180e+00,1.543046241999999984e+04
2.265810459999999971e+00,1.543053626000000077e+04
2.266008971000000205e+00,1.543064503999999943e+04
2.266207481999999995e+00,1.543076221000000078e+04
2.266405992999999786e+00,1.543091137999999955e+04
2.266604502999999937e+00,1.543106146000000081e+04
2.266803014000000172e+00,1.543125801999999931e+04
2.267001524999999962e+00,1.543146327999999994e+04
2.267200036000000196e+00,1.543168727000000035e+04
2.267398546999999986e+00,1.543193244000000050e+04
2.267597058000000221e+00,1.543219203999999991e+04
2.267793643000000081e+00,1.543246442999999999e+04
2.267992153999999871e+00,1.543275948000000062e+04
2.268192591000000036e+00,1.543306998999999996e+04
2.268391101999999826e+00,1.543337505000000056e+04
2.268589611999999978e+00,1.543370437999999922e+04
2.268786282000000210e+00,1.543402872000000025e+04
2.268984793000000000e+00,1.543435774999999921e+04
2.269185144999999793e+00,1.543469795999999951e+04
2.269383656000000027e+00,1.543503372999999920e+04
2.269582166999999817e+00,1.543537283000000025e+04
2.269780198999999943e+00,1.543568920000000071e+04
2.269978710000000177e+00,1.543601720999999998e+04
2.270177700000000076e+00,1.543632986999999957e+04
2.270376210999999866e+00,1.543663870999999926e+04
2.270574721000000018e+00,1.543693247999999949e+04
2.270774117000000203e+00,1.543721444999999949e+04
2.270972627999999993e+00,1.543749207000000024e+04
2.271170253999999833e+00,1.543773823000000084e+04
2.271368765000000067e+00,1.543797982000000047e+04
2.271567275999999858e+00,1.543821116000000075e+04
2.271768035000000019e+00,1.543840811000000031e+04
2.271966545000000171e+00,1.543859559000000081e+04
2.272162809000000117e+00,1.543876312999999936e+04
2.272361319999999907e+00,1.543891892999999982e+04
2.272559831000000141e+00,1.543903672999999981e+04
2.272758340999999849e+00,1.543914069000000018e+04
2.272956852000000083e+00,1.543921816000000035e+04
2.273155362999999873e+00,1.543928751000000011e+04
2.273353874000000108e+00,1.543931336000000010e+04
2.273552384999999898e+00,1.543932826000000023e+04
2.273750896000000132e+00,1.543931662999999935e+04
2.273949406999999923e+00,1.543928628000000026e+04
2.274147918000000157e+00,1.543923359999999957e+04
2.274346428999999947e+00,1.543914653999999973e+04
2.274544940000000182e+00,1.543904250999999931e+04
2.274743449999999889e+00,1.543892516000000069e+04
2.274941961000000124e+00,1.543877218999999968e+04
2.275140471999999914e+00,1.543859726000000046e+04
2.275338983000000148e+00,1.543839983000000029e+04
2.275537493999999938e+00,1.543817678999999953e+04
2.275736005000000173e+00,1.543793538000000081e+04
2.275934515999999963e+00,1.543768194000000040e+04
2.276133027000000197e+00,1.543741280000000006e+04
2.276331537999999988e+00,1.543713819999999942e+04
2.276530049000000222e+00,1.543685915999999997e+04
2.276728558999999930e+00,1.543658285000000069e+04
2.276927070000000164e+00,1.543629354000000058e+04
2.277125580999999954e+00,1.543602362999999968e+04
2.277324092000000189e+00,1.543575021000000015e+04
2.277522602999999979e+00,1.543549840000000040e+04
2.277721114000000213e+00,1.543524843999999939e+04
2.277919625000000003e+00,1.543501072999999997e+04
2.278118135999999794e+00,1.543479281000000083e+04
2.278314860000000053e+00,1.543459019000000080e+04
2.278513370999999843e+00,1.543441071000000011e+04
2.278713667999999970e+00,1.543424426999999923e+04
2.278912179000000204e+00,1.543410130000000026e+04
2.279110689999999995e+00,1.543397645999999986e+04
2.279307590000000161e+00,1.543386714000000029e+04
2.279506100999999951e+00,1.543379261000000042e+04
2.279706222999999810e+00,1.543373362000000088e+04
2.279904734000000044e+00,1.543370113999999921e+04
2.280103244999999834e+00,1.543368617000000086e+04
2.280301506999999894e+00,1.543368526999999995e+04
2.280500018000000129e+00,1.543371688999999969e+04
2.280698778000000093e+00,1.543376247999999941e+04
2.280897287999999801e+00,1.543383374000000003e+04
2.281095799000000035e+00,1.543391950999999972e+04
2.281295425000000154e+00,1.543403046999999970e+04
2.281493935999999945e+00,1.543414948000000004e+04
2.281691331999999850e+00,1.543428774999999951e+04
2.281889843000000084e+00,1.543443698000000040e+04
2.282088353999999875e+00,1.543460289000000012e+04
2.282289342999999970e+00,1.543477175999999963e+04
2.282487853000000122e+00,1.543494578000000001e+04
2.282683887000000134e+00,1.543512036000000080e+04
2.282882396999999841e+00,1.543530426000000080e+04
2.283080908000000075e+00,1.543548367999999937e+04
2.283279418999999866e+00,1.543566346999999951e+04
2.283477930000000100e+00,1.543584332999999970e+04
2.283676440999999890e+00,1.543601709999999912e+04
2.283874952000000125e+00,1.543620087000000058e+04
2.284073462999999915e+00,1.543635913000000073e+04
2.284271974000000149e+00,1.543651239999999962e+04
2.284470484999999940e+00,1.543666244000000006e+04
2.284668996000000174e+00,1.543680249000000003e+04
2.284867505999999882e+00,1.543693837999999960e+04
2.285066017000000116e+00,1.543705993999999919e+04
2.285264527999999906e+00,1.543715132000000085e+04
2.285463039000000141e+00,1.543726331000000027e+04
2.285661549999999931e+00,1.543734089999999924e+04
2.285860061000000165e+00,1.543741453999999976e+04
2.286058571999999955e+00,1.543746916000000056e+04
2.286257083000000190e+00,1.543751748000000043e+04
2.286455593999999980e+00,1.543755265999999938e+04
2.286654105000000214e+00,1.543757020000000011e+04
2.286852614999999922e+00,1.543758714999999938e+04
2.287051126000000156e+00,1.543757603999999992e+04
2.287249636999999947e+00,1.543755581999999958e+04
2.287448148000000181e+00,1.543752995000000010e+04
2.287646658999999971e+00,1.543749501000000055e+04
2.287845170000000206e+00,1.543743951999999990e+04
2.288043680999999996e+00,1.543737350999999944e+04
2.288242191999999786e+00,1.543730321999999978e+04
2.288440703000000020e+00,1.543721753999999964e+04
2.288639213999999811e+00,1.543710997999999927e+04
2.288836075999999942e+00,1.543698511999999937e+04
2.289034587000000176e+00,1.543686261999999988e+04
2.289234745999999987e+00,1.543670836000000054e+04
2.289433257000000221e+00,1.543653802999999971e+04
2.289631768000000012e+00,1.543636597000000074e+04
2.289828898000000112e+00,1.543617618000000039e+04
2.290027408999999903e+00,1.543596372999999949e+04
2.290227300999999827e+00,1.543573882000000049e+04
2.290425812000000061e+00,1.543551161999999931e+04
2.290624322999999851e+00,1.543525439000000006e+04
2.290822814999999846e+00,1.543500902999999926e+04
2.291021326000000080e+00,1.543473811000000023e+04
2.291219855000000027e+00,1.543445005999999921e+04
2.291418365999999818e+00,1.543416166999999950e+04
2.291616877000000052e+00,1.543386673999999948e+04
2.291816733000000106e+00,1.543356766000000061e+04
2.292015243999999896e+00,1.543326167999999961e+04
2.292212409999999867e+00,1.543295037000000048e+04
2.292410921000000101e+00,1.543264416999999958e+04
2.292609431999999892e+00,1.543233184000000074e+04
2.292809569000000103e+00,1.543201668000000063e+04
2.293008079999999893e+00,1.543170651999999973e+04
2.293204964000000068e+00,1.543139998999999989e+04
2.293403474999999858e+00,1.543109397999999965e+04
2.293601986000000093e+00,1.543078748000000087e+04
2.293800496999999883e+00,1.543048788000000059e+04
2.293999008000000117e+00,1.543018947999999909e+04
2.294197518999999907e+00,1.542988987000000088e+04
2.294396030000000142e+00,1.542959965000000011e+04
2.294594540999999932e+00,1.542931356000000051e+04
2.294793052000000166e+00,1.542901992000000064e+04
2.294991561999999874e+00,1.542873011000000042e+04
2.295190073000000108e+00,1.542845014000000083e+04
2.295388583999999899e+00,1.542816336000000047e+04
2.295587095000000133e+00,1.542787536999999975e+04
2.295785605999999923e+00,1.542757675999999992e+04
2.295984117000000158e+00,1.542729409999999916e+04
2.296182627999999948e+00,1.542700004000000081e+04
2.296381139000000182e+00,1.542669576000000052e+04
2.296579649999999972e+00,1.542639823000000069e+04
2.296778161000000207e+00,1.542608509000000049e+04
2.296976670999999914e+00,1.542577213999999913e+04
2.297175182000000149e+00,1.542544476000000031e+04
2.297373692999999939e+00,1.542511051000000043e+04
2.297572204000000173e+00,1.542476893000000018e+04
2.297770714999999964e+00,1.542441284000000087e+04
2.297969226000000198e+00,1.542405293999999958e+04
2.298167736999999988e+00,1.542367580000000089e+04
2.298366247999999779e+00,1.542329319000000032e+04
2.298564759000000013e+00,1.542288400000000001e+04
2.298763269999999803e+00,1.542247341000000051e+04
2.298961781000000038e+00,1.542204120999999941e+04
2.299160291000000189e+00,1.542159799000000021e+04
2.299356287999999804e+00,1.542114112000000023e+04
2.299554799000000038e+00,1.542067310999999972e+04
2.299755824000000004e+00,1.542017222000000038e+04
2.299954334999999794e+00,1.541966251000000011e+04
2.300152846000000029e+00,1.541913304000000062e+04
2.300350206000000064e+00,1.541858848000000035e+04
2.300548716999999854e+00,1.541803477000000021e+04
2.300748378999999844e+00,1.541744526000000042e+04
2.300946890000000078e+00,1.541684641999999985e+04
2.301145399999999785e+00,1.541622938000000067e+04
2.301344122999999797e+00,1.541559409000000051e+04
2.301542634000000032e+00,1.541494180000000051e+04
2.301740933000000044e+00,1.541426542999999947e+04
2.301939443999999835e+00,1.541359226999999919e+04
2.302137955000000069e+00,1.541289163000000008e+04
2.302338041000000057e+00,1.541217137000000002e+04
2.302536551999999848e+00,1.541143714000000000e+04
2.302733487999999884e+00,1.541071242999999959e+04
2.302931999000000118e+00,1.540997395999999935e+04
2.303130508999999826e+00,1.540922074000000066e+04
2.303330784999999992e+00,1.540844799000000057e+04
2.303529295999999782e+00,1.540768627000000015e+04
2.303726042000000085e+00,1.540694021000000066e+04
2.303924552999999875e+00,1.540616316999999981e+04
2.304123064000000110e+00,1.540541207000000031e+04
2.304321574999999900e+00,1.540463731999999982e+04
2.304520086000000134e+00,1.540389054000000033e+04
2.304718596999999924e+00,1.540314568999999938e+04
2.304917108000000159e+00,1.540241362999999910e+04
2.305115617999999866e+00,1.540168015000000014e+04
2.305314129000000101e+00,1.540095556000000033e+04
2.305512639999999891e+00,1.540025873999999931e+04
2.305711151000000125e+00,1.539957001999999920e+04
2.305909661999999916e+00,1.539889956999999958e+04
2.306108173000000150e+00,1.539824128999999994e+04
2.306306683999999940e+00,1.539759404999999970e+04
2.306505195000000175e+00,1.539697625999999946e+04
2.306703705999999965e+00,1.539637044000000060e+04
2.306902217000000199e+00,1.539578667999999925e+04
2.307100727999999989e+00,1.539521819999999934e+04
2.307299238000000141e+00,1.539466466000000037e+04
2.307497748999999931e+00,1.539414399000000049e+04
2.307696260000000166e+00,1.539363282000000072e+04
2.307894770999999956e+00,1.539314683999999943e+04
2.308093282000000190e+00,1.539267189999999937e+04
2.308291792999999981e+00,1.539221478999999999e+04
2.308490304000000215e+00,1.539177819000000090e+04
2.308688815000000005e+00,1.539136058000000048e+04
2.308887325999999796e+00,1.539095852999999988e+04
2.309085837000000030e+00,1.539056403999999930e+04
2.309284347000000182e+00,1.539018478999999934e+04
2.309482857999999972e+00,1.538983450000000084e+04
2.309681369000000206e+00,1.538947626999999920e+04
2.309877596000000199e+00,1.538914269000000058e+04
2.310076106999999990e+00,1.538880478000000039e+04
2.310276902000000021e+00,1.538846339000000080e+04
2.310475412999999811e+00,1.538814311000000089e+04
2.310673924000000046e+00,1.538782875000000058e+04
2.310871514000000015e+00,1.538751160999999956e+04
2.311070024999999806e+00,1.538720174000000043e+04
2.311269456000000222e+00,1.538688186999999925e+04
2.311467967000000012e+00,1.538656653000000006e+04
2.311666477999999803e+00,1.538625612000000001e+04
2.311865431000000193e+00,1.538593531000000075e+04
2.312063941999999983e+00,1.538563025999999991e+04
2.312262011000000062e+00,1.538531615000000056e+04
2.312460521999999852e+00,1.538499753000000055e+04
2.312659033000000086e+00,1.538468794999999955e+04
2.312859349000000009e+00,1.538437507000000005e+04
2.313057859999999799e+00,1.538406566999999995e+04
2.313254564999999818e+00,1.538376048000000083e+04
2.313453076000000053e+00,1.538346025999999983e+04
2.313651586999999843e+00,1.538315950999999950e+04
2.313852001999999963e+00,1.538286696999999913e+04
2.314050513000000198e+00,1.538257632999999987e+04
2.314247120000000102e+00,1.538229976999999963e+04
2.314445630999999892e+00,1.538201957000000039e+04
2.314644142000000127e+00,1.538175053999999909e+04
2.314842652999999917e+00,1.538149206000000049e+04
2.315041164000000151e+00,1.538124719000000005e+04
2.315239674999999941e+00,1.538100685999999951e+04
2.315438185000000093e+00,1.538077779000000010e+04
2.315636695999999883e+00,1.538056804000000011e+04
2.315835207000000118e+00,1.538036554000000069e+04
2.316033717999999908e+00,1.538016850999999951e+04
2.316232229000000142e+00,1.537999702000000070e+04
2.316430739999999933e+00,1.537984222000000045e+04
2.316629251000000167e+00,1.537969932999999946e+04
2.316827761999999957e+00,1.537956565000000046e+04
2.317026273000000192e+00,1.537945449999999983e+04
2.317224783999999982e+00,1.537936139000000003e+04
2.317423294000000134e+00,1.537928237000000081e+04
2.317621804999999924e+00,1.537921899999999914e+04
2.317820316000000158e+00,1.537917569999999978e+04
2.318018826999999948e+00,1.537913987000000088e+04
2.318217338000000183e+00,1.537912514000000010e+04
2.318415848999999973e+00,1.537912862999999925e+04
2.318614360000000207e+00,1.537914892999999938e+04
2.318812870999999998e+00,1.537917262999999912e+04
2.319011381999999788e+00,1.537921778000000086e+04
2.319209893000000022e+00,1.537927093000000059e+04
2.319406349999999950e+00,1.537933265000000029e+04
2.319604861000000184e+00,1.537940276000000085e+04
2.319805425000000199e+00,1.537949032000000079e+04
2.320003935999999989e+00,1.537957385000000068e+04
2.320202446999999779e+00,1.537965917000000081e+04
2.320398904000000151e+00,1.537974976000000061e+04
2.320597414999999941e+00,1.537985075999999935e+04
2.320797980000000038e+00,1.537993202999999994e+04
2.320996490999999828e+00,1.538001750999999967e+04
2.321195002000000063e+00,1.538009778999999980e+04
2.321392821999999967e+00,1.538017365000000063e+04
2.321591333000000201e+00,1.538024516000000040e+04
2.321790533999999795e+00,1.538029238000000078e+04
2.321989045000000029e+00,1.538036055999999917e+04
2.322187555999999820e+00,1.538038715000000047e+04
2.322386739000000144e+00,1.538042093999999997e+04
2.322585249999999935e+00,1.538044802999999956e+04
2.322783089000000079e+00,1.538045586000000003e+04
2.322981599999999869e+00,1.538045815000000039e+04
2.323180111000000103e+00,1.538044851999999992e+04
2.323380656999999960e+00,1.538042885999999999e+04
2.323579168000000195e+00,1.538039792999999918e+04
2.323775642999999835e+00,1.538037048999999934e+04
2.323974154000000070e+00,1.538032263000000057e+04
2.324172664999999860e+00,1.538027317000000039e+04
2.324373217999999852e+00,1.538022385000000031e+04
2.324571729000000087e+00,1.538015821999999935e+04
2.324768198000000119e+00,1.538009444000000076e+04
2.324966708999999909e+00,1.538004117000000042e+04
2.325165220000000144e+00,1.537997705999999926e+04
2.325363730999999934e+00,1.537990911000000051e+04
2.325562241000000085e+00,1.537986909000000014e+04
2.325760751999999876e+00,1.537982677999999942e+04
2.325959263000000110e+00,1.537978965000000062e+04
2.326157773999999900e+00,1.537976453000000038e+04
2.326356285000000135e+00,1.537974994999999944e+04
2.326554795999999925e+00,1.537976426999999967e+04
2.326753307000000159e+00,1.537977004999999917e+04
2.326951817999999950e+00,1.537980426000000080e+04
2.327150329000000184e+00,1.537983336000000054e+04
2.327348839999999974e+00,1.537988708000000042e+04
2.327547350000000126e+00,1.537995063999999911e+04
2.327745860999999916e+00,1.538002119999999923e+04
2.327944372000000151e+00,1.538009980999999971e+04
2.328142882999999941e+00,1.538016777000000002e+04
2.328341394000000175e+00,1.538024360999999953e+04
2.328539904999999965e+00,1.538032350000000042e+04
2.328738416000000200e+00,1.538039586000000054e+04
2.328936926999999990e+00,1.538047019000000000e+04
2.329135437999999780e+00,1.538052633000000060e+04
