x(m),wallP(Pa)
2.350164149907131961e+00,2.108122359507485271e+03
2.350363057804587985e+00,2.108019332386944370e+03
2.350561965705613154e+00,2.107918100905855226e+03
2.350760873607827151e+00,2.107818712911277544e+03
2.350959781508852320e+00,2.107721324312431079e+03
2.351158689408687774e+00,2.107626148587266471e+03
2.351357597307333513e+00,2.107532800411590870e+03
2.351556505207168968e+00,2.107440945677263699e+03
2.351755413105814707e+00,2.107351157882349071e+03
2.351954321008029147e+00,2.107262558029921820e+03
2.352153228909054317e+00,2.107174623186783265e+03
2.352352136807700056e+00,2.107087725117518858e+03
2.352551044708725225e+00,2.107000328145818457e+03
2.352749952607370965e+00,2.106912751856994419e+03
2.352948860506017148e+00,2.106823848116226600e+03
2.353147768407041873e+00,2.106733255041922348e+03
2.353344520030063336e+00,2.106641466323795157e+03
2.353543428052580655e+00,2.106546467583511912e+03
2.353744492110116937e+00,2.106446464327260401e+03
2.353943400009952391e+00,2.106344717021400356e+03
2.354140049736623830e+00,2.106240342382394829e+03
2.354338957766029417e+00,2.106130985187259739e+03
2.354540123711838628e+00,2.106015603979316438e+03
2.354739031609295541e+00,2.105898370037814402e+03
2.354937010744416970e+00,2.105777501241219852e+03
2.355135918696547037e+00,2.105652308693316172e+03
2.355335755308802348e+00,2.105522968985933403e+03
2.355534663209827961e+00,2.105391339114643415e+03
2.355733971753874112e+00,2.105256295987289377e+03
2.355932879632348431e+00,2.105119402352526777e+03
2.356131386910524483e+00,2.104980807291832662e+03
2.356330294809171555e+00,2.104840641518597749e+03
2.356530932762617603e+00,2.104697733145826533e+03
2.356729840563918099e+00,2.104555278614365761e+03
2.356927018509868521e+00,2.104414560113269545e+03
2.357125926410893246e+00,2.104272568477689219e+03
2.357326672300505077e+00,2.104129457101150365e+03
2.357525580098146722e+00,2.103988242610384532e+03
2.357722650109212115e+00,2.103850109385544329e+03
2.357921558010237728e+00,2.103711139133663437e+03
2.358120465912453056e+00,2.103573945795724285e+03
2.358319373813478226e+00,2.103438364519678544e+03
2.358518281713314124e+00,2.103304362440086152e+03
2.358717189611960752e+00,2.103171964583965291e+03
2.358916097512392174e+00,2.103041196902624961e+03
2.359115005411038801e+00,2.102912301720107735e+03
2.359313913312659050e+00,2.102785117601598813e+03
2.359512821213685108e+00,2.102659569219817513e+03
2.359711729112331291e+00,2.102535852407625953e+03
2.359910637013356460e+00,2.102413869046570198e+03
2.360109544912003532e+00,2.102293356437573493e+03
2.360308452810650603e+00,2.102174273238934347e+03
2.360507360712271296e+00,2.102056686692821131e+03
2.360706268610917924e+00,2.101940572745605550e+03
2.360905176511348902e+00,2.101825700662974214e+03
2.361104084414753501e+00,2.101712055685035011e+03
2.361302992314590288e+00,2.101599239829457019e+03
2.361501900213237803e+00,2.101487501074931060e+03
2.361700808115452688e+00,2.101376725171346152e+03
2.361899716016478301e+00,2.101266671196790412e+03
2.362098623913935658e+00,2.101157040789634721e+03
2.362297531814961715e+00,2.101047818678368913e+03
2.362496439714798502e+00,2.100939279930455541e+03
2.362695347613445573e+00,2.100830661520533340e+03
2.362894255514471187e+00,2.100722127767332950e+03
2.363093163413118258e+00,2.100613821775366432e+03
2.363292071314144760e+00,2.100505153751435955e+03
2.363490979215170373e+00,2.100396398942938958e+03
2.363689887113817001e+00,2.100287334073631882e+03
2.363888795014843502e+00,2.100177709587329446e+03
2.364087702913490574e+00,2.100067605632361392e+03
2.364286610814516187e+00,2.099956953860607427e+03
2.364485518716731960e+00,2.099845501871417127e+03
2.364684426617758461e+00,2.099733479475099557e+03
2.364883334517595248e+00,2.099620671281431441e+03
2.365082242416242320e+00,2.099507104364409315e+03
2.365281150316079106e+00,2.099392520985610190e+03
2.365478092233068708e+00,2.099278472027652242e+03
2.365677000245486550e+00,2.099162454547158632e+03
2.365877874017968452e+00,2.099043842496373600e+03
2.366076781916616412e+00,2.098926289646260102e+03
2.366273747302873875e+00,2.098808818588185204e+03
2.366472655310371209e+00,2.098689660513927720e+03
2.366673505614937056e+00,2.098567981279403739e+03
2.366872413515963114e+00,2.098447351728269041e+03
2.367070708310597293e+00,2.098326287689933906e+03
2.367269616245968322e+00,2.098204181628853803e+03
2.367469137216663633e+00,2.098081078591728328e+03
2.367668045115310704e+00,2.097958231281822918e+03
2.367867669318794110e+00,2.097834034702765166e+03
2.368066577177329712e+00,2.097710091344850298e+03
2.368264768816011223e+00,2.097586457265378613e+03
2.368463676719417155e+00,2.097461992030473994e+03
2.368664630329842424e+00,2.097336105320802744e+03
2.368863538113972655e+00,2.097211371700496784e+03
2.369060400415359702e+00,2.097088276140603284e+03
2.369259308316387092e+00,2.096963381442500122e+03
2.369460244396832227e+00,2.096837454294832696e+03
2.369659152184361073e+00,2.096712752874953821e+03
2.369856032019466596e+00,2.096590268668942372e+03
2.370054939918114112e+00,2.096466080276113189e+03
2.370253847818546422e+00,2.096342384226930790e+03
2.370452755717193938e+00,2.096219003392411196e+03
2.370651663618815519e+00,2.096096077874073217e+03
2.370850571519842465e+00,2.095973612640635565e+03
2.371049479418490424e+00,2.095852027025075131e+03
2.371248387319517370e+00,2.095731009154884305e+03
2.371447295218164886e+00,2.095610340738248851e+03
2.371646203116812401e+00,2.095490650909004671e+03
2.371845111018433983e+00,2.095371861779171923e+03
2.372044018921840358e+00,2.095253827685449323e+03
2.372242926822273112e+00,2.095136871125868765e+03
2.372441834720920628e+00,2.095020935117951012e+03
2.372640742620758303e+00,2.094905993263460914e+03
2.372839650519406263e+00,2.094792196590036838e+03
2.373038558421622923e+00,2.094679607521655271e+03
2.373237466322649869e+00,2.094568543517433682e+03
2.373436374221297829e+00,2.094458773402517636e+03
2.373635282122324774e+00,2.094350325912892913e+03
2.373834190020972734e+00,2.094243614658119441e+03
2.374033097919620694e+00,2.094138596523713204e+03
2.374232005820647640e+00,2.094035093641519325e+03
2.374430913719296043e+00,2.093933616028065899e+03
2.374629821620323433e+00,2.093833966911478456e+03
2.374828729521349935e+00,2.093736199168714393e+03
2.375027637419998783e+00,2.093640381220778636e+03
2.375226545321026173e+00,2.093546668398407746e+03
2.375425453219674576e+00,2.093455236331146807e+03
2.375624361120701966e+00,2.093365890740382383e+03
2.375823269022918183e+00,2.093278919947299073e+03
2.376022176923945572e+00,2.093194093837852506e+03
2.376221084823782803e+00,2.093111825125029100e+03
2.376419992722430763e+00,2.093031766559380230e+03
2.376618900622268882e+00,2.092954439111410466e+03
2.376817808520917730e+00,2.092879561065311009e+03
2.377016716423134390e+00,2.092807462568108349e+03
2.377215624324161336e+00,2.092737736747221788e+03
2.377414532222809740e+00,2.092670930090958791e+03
2.377611664277524461e+00,2.092607222744423325e+03
2.377810572275209200e+00,2.092545964653304509e+03
2.378011255921133937e+00,2.092486207309902966e+03
2.378210163822161327e+00,2.092430495501529094e+03
2.378407444867942644e+00,2.092377460681921548e+03
2.378606352859667261e+00,2.092327004761197259e+03
2.378806887525244385e+00,2.092278143829970759e+03
2.379005795425082503e+00,2.092233213107419488e+03
2.379204405876787831e+00,2.092190397464564739e+03
2.379403313795582786e+00,2.092150724428462127e+03
2.379602519126976290e+00,2.092112799889527651e+03
2.379801427025625138e+00,2.092077537546206713e+03
2.380001366886103753e+00,2.092044985997201820e+03
2.380200274727259036e+00,2.092014595065094909e+03
2.380398150726329209e+00,2.091986904571423111e+03
2.380597058627357043e+00,2.091960774615419723e+03
2.380798327894699806e+00,2.091936971742843525e+03
2.380997235664213729e+00,2.091914766287370639e+03
2.381193782325681685e+00,2.091895498063466221e+03
2.381392690224330533e+00,2.091876987911344713e+03
2.381593816651955464e+00,2.091860079670426330e+03
2.381792724427087116e+00,2.091845044849043916e+03
2.381989413925035493e+00,2.091832077598197884e+03
2.382188321826063326e+00,2.091819845386286488e+03
2.382387229725307254e+00,2.091808719140762150e+03
2.382586137626334644e+00,2.091798930453435332e+03
2.382785045524388412e+00,2.091789928648424848e+03
2.382983953425416690e+00,2.091782518369271656e+03
2.383182861327634239e+00,2.091775218077617410e+03
2.383381769228662517e+00,2.091769097817800230e+03
2.383580677128501080e+00,2.091762872299183528e+03
2.383779585027149928e+00,2.091757907441878615e+03
2.383978492927583126e+00,2.091753028533728866e+03
2.384177400826232418e+00,2.091748711819997880e+03
2.384376308727855776e+00,2.091744553627987898e+03
2.384575216628884053e+00,2.091741041712224160e+03
2.384774124527533345e+00,2.091737279052716985e+03
2.384973032428561179e+00,2.091734012123024058e+03
2.385171940327210471e+00,2.091731246893590196e+03
2.385370848225859319e+00,2.091728940896083714e+03
2.385569756126887597e+00,2.091726307365281173e+03
2.385768664025536889e+00,2.091724273552382328e+03
2.385967571926564723e+00,2.091723006022151367e+03
2.386166479829971987e+00,2.091722254119363242e+03
2.386365387729810994e+00,2.091722107343158768e+03
2.386564295628460286e+00,2.091722839477847174e+03
2.386763203525920307e+00,2.091723727206344847e+03
2.386962111426949029e+00,2.091725546140302413e+03
2.387161019329166578e+00,2.091728633252672807e+03
2.387359927230194856e+00,2.091732899738316519e+03
2.387558835130033863e+00,2.091738334668682455e+03
2.387757743028683155e+00,2.091745296062866601e+03
2.387956650929711877e+00,2.091753520082948398e+03
2.388155558828361169e+00,2.091764129221629446e+03
2.388354466729390335e+00,2.091776374720561762e+03
2.388553374630418613e+00,2.091790705140637328e+03
2.388752282529067905e+00,2.091806971971798248e+03
2.388948803370096297e+00,2.091825798113026394e+03
2.389147711401236940e+00,2.091846605957443444e+03
2.389349006227395211e+00,2.091870807949117534e+03
2.389547914129613648e+00,2.091896799095775805e+03
2.389745236180437438e+00,2.091925582247111834e+03
2.389944144168268281e+00,2.091957119300149770e+03
2.390144637831510099e+00,2.091992260882909704e+03
2.390343545731349106e+00,2.092029433723020702e+03
2.390541142434211341e+00,2.092069845803343469e+03
2.390740050409157824e+00,2.092113113635829450e+03
2.390940269433246002e+00,2.092160117081221415e+03
2.391139177331895738e+00,2.092209247991835127e+03
2.391338103442989027e+00,2.092261488870538869e+03
2.391537011340629348e+00,2.092316490137568053e+03
2.391735901032602918e+00,2.092374314690122446e+03
2.391934808933631640e+00,2.092434931488208349e+03
2.392135064451045512e+00,2.092498405837325663e+03
2.392333972277375764e+00,2.092564443023009062e+03
2.392531532631960278e+00,2.092631265213402912e+03
2.392730440530610458e+00,2.092700703291875925e+03
2.392930956198162651e+00,2.092772345749788656e+03
2.393129864007723651e+00,2.092845546550086510e+03
2.393327164231318971e+00,2.092918387932867518e+03
2.393526072132347693e+00,2.092993816216842788e+03
2.393724980031592509e+00,2.093068853966186452e+03
2.393923887932621231e+00,2.093144432250012414e+03
2.394122795830676331e+00,2.093220351255558398e+03
2.394321703731705941e+00,2.093296385288789679e+03
2.394520611633924378e+00,2.093371963654599313e+03
2.394719519534953545e+00,2.093446933837947654e+03
2.394918427434793440e+00,2.093521341158425457e+03
2.395117335333443620e+00,2.093594916151847883e+03
2.395316243233877707e+00,2.093667331761389505e+03
2.395515151132527443e+00,2.093738406188302633e+03
2.395714059034151688e+00,2.093808121081330683e+03
2.395912966935180854e+00,2.093876481443501234e+03
2.396111874833831035e+00,2.093943254777829225e+03
2.396310782734860645e+00,2.094008232309181039e+03
2.396509690633510825e+00,2.094071423193841838e+03
2.396708598532161005e+00,2.094132891143769484e+03
2.396907506433785251e+00,2.094192274175969033e+03
2.397106414337193847e+00,2.094249660218615645e+03
2.397305322237628378e+00,2.094305176385722007e+03
2.397504230136278558e+00,2.094358782356946449e+03
2.397703138036118897e+00,2.094410556857552365e+03
2.397902045934769522e+00,2.094460274288882374e+03
2.398100953836987514e+00,2.094508140835137056e+03
2.398299861738017125e+00,2.094554444090668312e+03
2.398498769635478034e+00,2.094599157915362412e+03
2.398697677536507644e+00,2.094642151068406292e+03
2.398896585436347539e+00,2.094683552600833536e+03
2.399095493334998164e+00,2.094723558919077732e+03
2.399294401236027330e+00,2.094761983219730610e+03
2.399493309134677954e+00,2.094799643370599824e+03
2.399692217035708452e+00,2.094836156414485231e+03
2.399891124936737619e+00,2.094871481246936582e+03
2.400090032835387799e+00,2.094906263673156445e+03
2.400288940736417853e+00,2.094939935902518755e+03
2.400487848635068033e+00,2.094973802020727362e+03
2.400686756536097644e+00,2.095007036421961857e+03
2.400885664438316969e+00,2.095039748585360940e+03
2.401082375784421075e+00,2.095072681549998379e+03
2.401281283805563049e+00,2.095105987042363267e+03
2.401482388137838431e+00,2.095140167926215327e+03
2.401681296037678326e+00,2.095174242343750848e+03
2.401877878992245918e+00,2.095208690970160205e+03
2.402076787022814131e+00,2.095243884740963495e+03
2.402278019739578330e+00,2.095280763440046940e+03
2.402476927638228954e+00,2.095318180223489435e+03
2.402674840000489809e+00,2.095356402099861953e+03
2.402873747954081374e+00,2.095395859322103661e+03
2.403073651336560257e+00,2.095437329190539913e+03
2.403272559237590311e+00,2.095479838453792127e+03
2.403471801008010722e+00,2.095523966090293470e+03
2.403670708890621732e+00,2.095569347919524262e+03
2.403869282938300600e+00,2.095616362086956542e+03
2.404068190836951668e+00,2.095665539224944496e+03
2.404268762015997929e+00,2.095716504239650931e+03
2.404467669822918374e+00,2.095769042962187996e+03
2.404664914537663289e+00,2.095822424591355229e+03
2.404863822441072774e+00,2.095878435530889419e+03
2.405064528117933698e+00,2.095936648888632135e+03
2.405263435917469828e+00,2.095996123533388072e+03
2.405460546141783951e+00,2.096056260899125391e+03
2.405659454042814005e+00,2.096119227768071141e+03
2.405858361940572898e+00,2.096183416417580702e+03
2.406057269841602952e+00,2.096249141914547636e+03
2.406256177741146196e+00,2.096316261390913041e+03
2.406455085639796820e+00,2.096384649715858359e+03
2.406653993540827319e+00,2.096454223881361941e+03
2.406852901439478831e+00,2.096525106181548836e+03
2.407051809340509330e+00,2.096597050333233256e+03
2.407250717241539828e+00,2.096669831319117293e+03
2.407449625140785976e+00,2.096743482921475788e+03
2.407648533041816474e+00,2.096817978432046402e+03
2.407847440939872907e+00,2.096893396181629214e+03
2.408046348840903406e+00,2.096969754860735065e+03
2.408245256742528095e+00,2.097046412321467415e+03
2.408444164643558594e+00,2.097123899982721014e+03
2.408643072543994457e+00,2.097202120993058088e+03
2.408841980442645525e+00,2.097281025200864860e+03
2.409040888342486753e+00,2.097360380554428048e+03
2.409239796241138265e+00,2.097440359963110041e+03
2.409438704143358478e+00,2.097520851363608472e+03
2.409637612044388533e+00,2.097601889019328610e+03
2.409836519943040045e+00,2.097683405599401794e+03
2.410035427844070544e+00,2.097765382030161163e+03
2.410234335742722500e+00,2.097847881632771987e+03
2.410433243641374013e+00,2.097930588832746707e+03
2.410632151542404511e+00,2.098013559004133640e+03
2.410831059441056468e+00,2.098096687299630958e+03
2.411029967342086966e+00,2.098179901173416511e+03
2.411228875245496894e+00,2.098263312952920842e+03
2.411427783145337678e+00,2.098346989372522785e+03
2.411626691043989190e+00,2.098430577373382221e+03
2.411825598941451432e+00,2.098514027257934686e+03
2.412024506842481930e+00,2.098597874226866224e+03
2.412223414744702144e+00,2.098681982604141922e+03
2.412422322645733530e+00,2.098765603611760525e+03
2.412621230545575202e+00,2.098849336395300725e+03
2.412820138444227158e+00,2.098933128795014909e+03
2.413019046345257657e+00,2.099017237762070636e+03
2.413215948022874535e+00,2.099100201854872012e+03
2.413414856034139078e+00,2.099183525750087938e+03
2.413615770045971498e+00,2.099268282351828020e+03
2.413814677944623455e+00,2.099351401616967451e+03
2.414011576558597216e+00,2.099433631150714973e+03
2.414210484567614667e+00,2.099516042244700657e+03
2.414411401642957866e+00,2.099599131779064919e+03
2.414610309545178524e+00,2.099680168986289573e+03
2.414808537566777602e+00,2.099760485071552466e+03
2.415007445503951189e+00,2.099839977616667966e+03
2.415207033247082968e+00,2.099918802551545014e+03
2.415405941145734481e+00,2.099995699479732139e+03
2.415605498573042631e+00,2.100071391805240182e+03
2.415804406440799301e+00,2.100145917202923556e+03
2.416002664848827752e+00,2.100218284714988386e+03
2.416201572747480153e+00,2.100289234632667103e+03
2.416402459583340878e+00,2.100359271566445386e+03
2.416601367373401921e+00,2.100427039802493709e+03
2.416798296448194439e+00,2.100491926968713415e+03
2.416997204349225381e+00,2.100556543582423728e+03
2.417198100179142273e+00,2.100620097690344210e+03
2.417397007971124889e+00,2.100681552516754437e+03
2.417593928047561125e+00,2.100740737055209593e+03
2.417792835946213081e+00,2.100800021347218262e+03
2.417991743847244468e+00,2.100857409037894286e+03
2.418190651745895980e+00,2.100914326635136604e+03
2.418389559646927811e+00,2.100970403854620599e+03
2.418588467547959198e+00,2.101026127507430829e+03
2.418787375447206678e+00,2.101081154577676443e+03
2.418986283348238064e+00,2.101136186321486548e+03
2.419185191246295386e+00,2.101190906696913316e+03
2.419384099147326772e+00,2.101246085212830167e+03
2.419583007049547430e+00,2.101301340289091058e+03
2.419781914950578816e+00,2.101357312934851961e+03
2.419980822850420932e+00,2.101413900455156636e+03
2.420179730749073777e+00,2.101471484182306540e+03
2.420378638649510528e+00,2.101530011955121154e+03
2.420577546548162484e+00,2.101589766792031696e+03
2.420776454449788950e+00,2.101650763232946701e+03
2.420975362350820337e+00,2.101713865914104645e+03
2.421174270249473626e+00,2.101778615234272365e+03
2.421373178150505012e+00,2.101845454542475181e+03
2.421572086049157413e+00,2.101914505807377736e+03
2.421770993947810258e+00,2.101985884248860657e+03
2.421969901848842088e+00,2.102059784164413486e+03
2.422168809752252461e+00,2.102136431115038704e+03
2.422367717653283847e+00,2.102215984257185482e+03
2.422566625551936692e+00,2.102298408986542654e+03
2.422765533451779252e+00,2.102383772020636115e+03
2.422964441350432097e+00,2.102472501022917641e+03
2.423163349252653198e+00,2.102564090971275164e+03
2.423362257153684585e+00,2.102659240631538978e+03
2.423561165051148159e+00,2.102757760815946313e+03
2.423760072952179989e+00,2.102859340736183640e+03
2.423958980852022549e+00,2.102964498565348094e+03
2.424157888750675394e+00,2.103073262113581222e+03
2.424356796651707224e+00,2.103185332699083119e+03
2.424555704550360069e+00,2.103300476726367833e+03
2.424754612451391900e+00,2.103418847601372818e+03
2.424953520352424174e+00,2.103540554105628416e+03
2.425152428251077019e+00,2.103665465768471222e+03
2.425349520098157630e+00,2.103792573863753205e+03
2.425548428096096387e+00,2.103923342802225307e+03
2.425749151951794413e+00,2.104058939389038187e+03
2.425948059854015515e+00,2.104194953323301434e+03
2.426145274124955620e+00,2.104332263881894050e+03
2.426344182117360138e+00,2.104473151933173085e+03
2.426544783553542750e+00,2.104618127244770221e+03
2.426743691453385310e+00,2.104763138364715815e+03
2.426942235131882342e+00,2.104909742908465887e+03
2.427141143054003525e+00,2.105057885473634542e+03
2.427340415155292419e+00,2.105207889420197262e+03
2.427539323053945708e+00,2.105358721485273691e+03
2.427739196140461964e+00,2.105511499537476993e+03
2.427938103986399643e+00,2.105664896314644466e+03
2.428136046754664434e+00,2.105817597177239804e+03
2.428334954655696265e+00,2.105971842272309004e+03
2.428536157148312835e+00,2.106128885683489443e+03
2.428735064924062215e+00,2.106285352835914182e+03
2.428931678354034673e+00,2.106439337976342813e+03
2.429130586252688406e+00,2.106596331070698852e+03
2.429331672398804987e+00,2.106755092140574561e+03
