x(m),wallP(Pa)
2.261110031999999936e+00,2.632419367999999849e+03
2.265963209999999783e+00,2.628971987999999783e+03
2.270816388000000074e+00,2.624835132000000158e+03
2.277103395999999780e+00,2.562092815999999857e+03
2.277793006000000009e+00,2.608287708000000293e+03
2.278460264000000013e+00,3.384637684000000263e+03
2.279164097999999861e+00,4.121687528000000384e+03
2.280523252000000056e+00,4.770484443999999712e+03
2.282634499999999900e+00,5.311033628000000135e+03
2.284769878000000087e+00,5.727477131999999983e+03
2.287329943999999671e+00,6.161847012000000177e+03
2.289781043999999710e+00,6.470732259999999769e+03
2.293214616000000206e+00,6.824433448000000681e+03
2.297376406000000149e+00,7.221571624000001066e+03
2.302460215999999615e+00,7.653183600000001206e+03
2.305833336000000067e+00,7.873126443999999537e+03
2.308284181999999962e+00,8.147537892000000284e+03
2.313137359999999809e+00,8.286122568000000683e+03
2.317796481999999880e+00,8.567428776000000653e+03
2.322337747999999813e+00,8.848734984000000622e+03
2.327688004000000088e+00,9.147278092000000470e+03
2.335056289999999812e+00,9.489258188000001610e+03
2.338771040000000134e+00,9.620948104000000967e+03
2.343143141999999735e+00,9.740916928000000553e+03
2.347576204000000111e+00,1.000705466400000114e+04
2.349197231999999858e+00,1.018011313999999948e+04
2.350446911999999777e+00,1.037523484800000006e+04
2.351272158000000001e+00,1.067722533599999952e+04
2.351987929999999949e+00,1.101437910000000011e+04
2.352606928000000153e+00,1.127155364800000098e+04
2.353007231999999949e+00,1.152045448399999987e+04
2.353468241999999933e+00,1.120881133199999931e+04
2.353905122000000016e+00,1.089716818000000058e+04
2.354317618000000056e+00,1.071928337199999987e+04
2.354669407999999908e+00,1.062965149200000087e+04
2.355628003999999720e+00,1.062068830400000115e+04
2.356841107999999796e+00,1.088613656400000036e+04
2.358649080000000176e+00,1.143633841200000097e+04
2.360614785999999743e+00,1.219062515600000006e+04
2.362786739999999774e+00,1.324759186399999999e+04
2.367300574000000157e+00,1.593034298000000126e+04
2.370795359999999796e+00,1.834695636000000013e+04
2.371377781999999712e+00,1.891577405999999974e+04
2.374484202000000099e+00,2.147510897200000181e+04
2.377202255999999903e+00,2.446122952799999985e+04
2.379726253999999930e+00,2.744803956000000107e+04
2.382056195999999737e+00,3.057688164800000231e+04
2.384192081999999768e+00,3.384844526800000313e+04
2.386133912000000024e+00,3.697728735600000073e+04
2.388075488000000135e+00,4.024885097600000154e+04
2.389823261999999726e+00,4.366313612799999828e+04
2.391570781999999618e+00,4.693469974799999909e+04
2.393124245999999733e+00,5.034898490000000311e+04
2.395065821999999844e+00,5.362054852000000392e+04
2.396619285999999960e+00,5.703483367200000066e+04
2.398367059999999995e+00,6.030639729200000875e+04
2.399920524000000110e+00,6.357796091200000228e+04
2.403027198000000197e+00,6.855666710800000874e+04
2.405357140000000005e+00,7.168550919599999906e+04
2.408075193999999808e+00,7.452959769599999709e+04
2.410210826000000139e+00,7.523975797599999350e+04
2.412928117999999955e+00,7.239153261999999813e+04
2.414869185999999779e+00,6.911721109599999909e+04
2.417004056000000123e+00,6.598492162799999642e+04
2.418751068000000171e+00,6.384892498000000342e+04
2.420546594000000162e+00,6.219418258000000060e+04
2.421856726000000126e+00,6.114273168000000442e+04
2.423634218000000118e+00,5.980514823999999498e+04
2.425804647999999730e+00,5.836896973200000502e+04
2.427119352000000063e+00,5.744920874800000456e+04
2.428724123999999929e+00,5.663011125999999786e+04
2.429924527999999917e+00,5.604957246800000576e+04
2.431320003999999813e+00,5.549661271599999600e+04
2.432229831999999980e+00,5.524702240400000301e+04
2.432872959999999640e+00,5.506017440800000622e+04
2.433710143999999964e+00,5.481058409600000596e+04
2.434862541999999852e+00,5.457823068400000193e+04
2.436124414000000016e+00,5.435484045999999944e+04
2.437422607999999880e+00,5.416730298800000310e+04
2.439012139999999995e+00,5.397011285200000566e+04
2.441462985999999891e+00,5.386186512000000221e+04
2.444790385999999760e+00,5.388392835200000263e+04
2.449620958000000126e+00,5.405974473199999920e+04
2.454451530000000048e+00,5.426865596000000369e+04
2.460681896000000091e+00,5.456788854400000127e+04
2.465535073999999938e+00,5.456444116400000348e+04
2.470388505999999929e+00,5.456099378400000569e+04
2.475241684000000220e+00,5.455754640400000062e+04
2.478978531999999735e+00,5.453686212400000659e+04
2.481914771999999658e+00,5.433898251200000232e+04
2.484656955999999806e+00,5.442585648799999763e+04
2.487714353999999961e+00,5.421005049999999756e+04
