x(m),wallHeatFlux(W/m2)
1.841844051012753170e-02,1.699931496343018080e+05
1.907604501125303997e-02,1.619753043926502869e+05
1.973364951237810069e-02,1.551661016896725923e+05
2.039125401350316835e-02,1.492619867949105101e+05
2.104885851462868010e-02,1.440534826958708873e+05
2.170646301575418144e-02,1.393961934897720057e+05
2.236406751687924910e-02,1.351899535363732139e+05
2.302167201800430982e-02,1.313637589665550913e+05
2.367927651913026912e-02,1.278658681541885016e+05
2.433688102025532984e-02,1.246564984293551970e+05
2.499448552138039056e-02,1.217036021968537971e+05
2.565209002250589884e-02,1.189805370480784040e+05
2.630969452363096997e-02,1.164643684787147067e+05
2.696729902475647131e-02,1.141352840873490059e+05
2.762490352588153897e-02,1.119761990111527994e+05
2.828250802700705072e-02,1.099719957619088964e+05
2.894011252813211144e-02,1.081112177653472027e+05
2.959771702925761971e-02,1.063821321588797000e+05
3.025532153038268043e-02,1.047743287630631967e+05
3.091292603150818871e-02,1.032794225563073996e+05
3.157053053263326331e-02,1.018902204657020047e+05
3.222813503375832056e-02,1.006006016183796019e+05
3.288573953488382884e-02,9.940486679396081308e+04
3.354334403600889303e-02,9.829762537194939796e+04
3.420094853713440131e-02,9.727361858876053884e+04
3.485855303825990958e-02,9.632834615635259252e+04
3.551615753938496683e-02,9.545777833855085191e+04
3.617376204051003796e-02,9.465853599481972924e+04
3.683136654163599033e-02,9.392754017651644244e+04
3.748897104276061043e-02,9.326236479609843809e+04
3.814657554388566768e-02,9.266104038014885737e+04
3.880418004501162699e-02,9.212199529095932667e+04
3.946178454613624709e-02,9.164407414279498335e+04
4.011938904726219945e-02,9.122653640216782514e+04
4.077699354838725671e-02,9.086896318142721429e+04
4.143459804951277192e-02,9.057129565424499742e+04
4.209220255063784305e-02,9.033387535479497456e+04
4.274980705176333745e-02,9.015734121067145315e+04
4.340741155288840858e-02,9.004264925015345216e+04
4.406501605401347277e-02,8.999101831783811213e+04
4.472262055513898105e-02,9.000390775107689842e+04
4.538022505626405217e-02,9.008295898153941380e+04
4.603782955738954658e-02,9.022992430489731487e+04
4.669543405851461770e-02,9.044661932163601159e+04
4.735303855964013292e-02,9.073479045421397313e+04
4.801064306076519017e-02,9.109605500344274333e+04
4.866824756189069845e-02,9.153174201369070215e+04
4.932585206301576264e-02,9.204275357428446296e+04
4.998345656414082683e-02,9.262947090220313112e+04
5.064106106526634205e-02,9.329160031732612697e+04
5.129866556639184338e-02,9.402802630800387124e+04
5.195627006751690757e-02,9.483674084894587577e+04
5.261387456864197176e-02,9.571478899834601907e+04
5.327147906976791719e-02,9.665812394419089833e+04
5.392908357089253729e-02,9.766189927491919661e+04
5.458668807201805251e-02,9.872035222327592783e+04
5.524429257314356079e-02,9.982692724221244862e+04
5.590189707426818089e-02,1.009744549333475006e+05
5.655950157539368917e-02,1.021554234163049987e+05
5.721710607651919744e-02,1.033622992942837009e+05
5.787471057764471266e-02,1.045873478946965042e+05
5.853231507876976991e-02,1.058230365784823953e+05
5.918991957989527819e-02,1.070624103995342011e+05
5.984752408102034238e-02,1.082991134806976042e+05
6.050512858214585066e-02,1.095273217624443059e+05
6.116273308327090791e-02,1.107419299806744966e+05
6.182033758439597904e-02,1.119387803217652981e+05
6.247794208552148731e-02,1.131143707258741051e+05
6.313554658664655150e-02,1.142657891013509070e+05
6.379315108777205978e-02,1.153907428745181969e+05
6.445075558889712397e-02,1.164873675198510027e+05
6.510836009002263225e-02,1.175544743440513994e+05
6.576596459114769644e-02,1.185912187880681013e+05
6.642356909227320472e-02,1.195971510598421009e+05
6.708117359339826891e-02,1.205721133283084928e+05
6.773877809452377718e-02,1.215161914620846946e+05
6.839638259564884137e-02,1.224296611310729058e+05
6.905398709677390556e-02,1.233128559908909956e+05
6.971159159789985793e-02,1.241663113498533930e+05
7.036919609902447803e-02,1.249907261696531932e+05
7.102680060014998631e-02,1.257869210801451991e+05
7.168440510127549459e-02,1.265558691096261027e+05
7.234200960240055878e-02,1.272985266473962984e+05
7.299961410352562297e-02,1.280157877218874928e+05
7.365721860465113124e-02,1.287084468285413022e+05
7.431482310577663952e-02,1.293771524652033986e+05
7.497242760690125962e-02,1.300224479997446033e+05
7.563003210802721199e-02,1.306448841952812072e+05
7.628763660915227618e-02,1.312450564804683963e+05
7.694524111027778446e-02,1.318235222615780076e+05
7.760284561140284865e-02,1.323807726031637867e+05
7.826045011252835693e-02,1.329172624158454128e+05
7.891805461365342111e-02,1.334334563569056918e+05
7.957565911477848530e-02,1.339298705837304879e+05
8.023326361590399358e-02,1.344070658691764111e+05
8.089086811702905777e-02,1.348655789817268960e+05
8.154847261815456605e-02,1.353059313480670971e+05
8.220607711927963024e-02,1.357286388279630919e+05
8.286368162040513852e-02,1.361342226244565973e+05
8.352128612153020271e-02,1.365231995231308974e+05
8.417889062265571098e-02,1.368960929226558947e+05
8.483649512378077517e-02,1.372534275697690027e+05
8.549409962490583936e-02,1.375957613221532956e+05
8.615170412603134764e-02,1.379236307653906115e+05
8.680930862715641183e-02,1.382375515840374865e+05
8.746691312828192011e-02,1.385380144101601909e+05
8.812451762940742839e-02,1.388254861519752012e+05
8.878212213053293667e-02,1.391003989976572921e+05
8.943972663165755677e-02,1.393631760354593862e+05
9.009733113278350913e-02,1.396142240436128050e+05
9.075493563390857332e-02,1.398539543349471933e+05
9.141254013503319342e-02,1.400827641184836975e+05
9.207014463615914579e-02,1.403010488919825875e+05
9.272774913728420998e-02,1.405091995205816056e+05
9.338535363840927417e-02,1.407075857563817990e+05
9.404295813953478245e-02,1.408965450366516015e+05
9.470056264066029073e-02,1.410763915222265059e+05
9.535816714178535491e-02,1.412474234479388979e+05
9.601577164291086319e-02,1.414099289372987987e+05
9.667337614403592738e-02,1.415641904436314071e+05
9.733098064516099157e-02,1.417104843484995072e+05
9.798858514628649985e-02,1.418490833157988091e+05
9.864618964741156404e-02,1.419802589666414133e+05
9.930379414853707232e-02,1.421042663263652066e+05
9.996139864966213651e-02,1.422213442006493860e+05
1.006190031507876032e-01,1.423317262279964052e+05
1.012766076519126951e-01,1.424356368568330945e+05
1.019342121530382034e-01,1.425332936252565123e+05
1.025918166541632953e-01,1.426249001215134922e+05
1.032494211552883040e-01,1.427106557992699964e+05
1.039070256564138955e-01,1.427907627762588090e+05
1.045646301575389042e-01,1.428654103552038141e+05
1.052222346586648982e-01,1.429347705580207112e+05
1.058798391597895044e-01,1.429990166399031004e+05
1.065374436609154013e-01,1.430583119141740899e+05
1.071950481620404932e-01,1.431128206124485878e+05
1.078526526631655991e-01,1.431626943472968997e+05
1.085102571642910935e-01,1.432080812891336100e+05
1.091678616654161021e-01,1.432491307803966920e+05
1.098254661665411941e-01,1.432859805358202138e+05
1.104830706676667024e-01,1.433187569556687085e+05
1.111406751687921968e-01,1.433475892701770063e+05
1.117982796699173026e-01,1.433726042169274006e+05
1.124558841710427970e-01,1.433939272741372115e+05
1.131134886721679028e-01,1.434116816335894982e+05
1.137710931732933972e-01,1.434259849214339047e+05
1.144286976744184059e-01,1.434369577934459085e+05
1.150863021755434978e-01,1.434447085467702127e+05
1.157439066766690061e-01,1.434493371368377120e+05
1.164015111777940981e-01,1.434509360587587871e+05
1.170591156789196063e-01,1.434496030346452026e+05
1.177167201800446011e-01,1.434454283120275941e+05
1.183743246811702066e-01,1.434385040813953092e+05
1.190319291822952014e-01,1.434289194171603885e+05
1.196895336834211954e-01,1.434167649261894112e+05
1.203471381845458016e-01,1.434021297279403952e+05
1.210047426856708935e-01,1.433850948302400066e+05
1.216623471867968043e-01,1.433657364596337138e+05
1.223199516879213966e-01,1.433441328760024917e+05
1.229775561890469049e-01,1.433203570649765898e+05
1.236351606901723993e-01,1.432944827233029064e+05
1.242927651912978937e-01,1.432665748639809899e+05
1.249503696924229995e-01,1.432367014645262097e+05
1.256079741935484939e-01,1.432049279661097098e+05
1.262655786946736136e-01,1.431713223226499977e+05
1.269231831957987056e-01,1.431359388774549880e+05
1.275807876969242138e-01,1.430988366167178901e+05
1.282383921980491948e-01,1.430600703491517925e+05
1.288959966991747030e-01,1.430196950444224058e+05
1.295536012002997950e-01,1.429777638982023054e+05
1.302112057014253033e-01,1.429343282431013067e+05
1.308688102025503952e-01,1.428894381457915006e+05
1.315264147036759035e-01,1.428431447025089001e+05
1.321840192048009122e-01,1.427954978503354941e+05
1.328416237059260041e-01,1.427465422658692987e+05
1.334992282070515124e-01,1.426963202039920143e+05
1.341568327081769929e-01,1.426448724595624954e+05
1.348144372093025012e-01,1.425922448187156115e+05
1.354720417104270935e-01,1.425384756353035918e+05
1.361296462115531014e-01,1.424836073639639944e+05
1.367872507126781934e-01,1.424276763486978889e+05
1.374448552138032020e-01,1.423707221806132002e+05
1.381024597149287103e-01,1.423127811586016032e+05
1.387600642160538023e-01,1.422538905685849022e+05
1.394176687171793105e-01,1.421940819084011891e+05
1.400752732183044025e-01,1.421333828014986939e+05
1.407328777194299108e-01,1.420718242035665025e+05
1.413904822205548917e-01,1.420094361155809020e+05
1.420480867216805110e-01,1.419462467276825046e+05
1.427056912228054919e-01,1.418822861396821972e+05
1.433632957239310002e-01,1.418175838914487103e+05
1.440209002250560921e-01,1.417521677865714883e+05
1.446785047261812118e-01,1.416860656729628972e+05
1.453361092273066923e-01,1.416193069443820859e+05
1.459937137284317010e-01,1.415519152021442133e+05
1.466513182295572093e-01,1.414839116022571106e+05
1.473089227306826898e-01,1.414153149968477956e+05
1.479665272318078095e-01,1.413461444133004115e+05
1.486241317329329015e-01,1.412764186022804060e+05
1.492817362340587983e-01,1.412061555868414871e+05
1.499393407351833907e-01,1.411353744569664123e+05
1.505969452363085104e-01,1.410640939377041068e+05
1.512545497374344905e-01,1.409923335210933874e+05
1.519121542385594992e-01,1.409201125944197993e+05
1.525697587396845911e-01,1.408474525886304909e+05
1.532273632408100994e-01,1.407743747354956868e+05
1.538849677419356077e-01,1.407008964333957119e+05
1.545425722430606996e-01,1.406270333353051974e+05
1.552001767441862079e-01,1.405528011054958042e+05
1.558577812453111888e-01,1.404782104274060111e+05
1.565153857464363085e-01,1.404032771946351859e+05
1.571729902475617890e-01,1.403280107152891869e+05
1.578305947486869087e-01,1.402524220865448879e+05
1.584881992498123893e-01,1.401765227644414117e+05
1.591458037509375090e-01,1.401003221153607883e+05
1.598034082520629895e-01,1.400238333183955110e+05
1.604610127531879982e-01,1.399470653114707093e+05
1.611186172543135064e-01,1.398700344388734084e+05
1.617762217554385984e-01,1.397927513625604042e+05
1.624338262565636903e-01,1.397152271933009906e+05
1.630914307576891986e-01,1.396374727598867030e+05
1.637490352588147069e-01,1.395594978112897079e+05
1.644066397599401874e-01,1.394813133754617884e+05
1.650642442610648075e-01,1.394029279555997055e+05
1.657218487621907876e-01,1.393243500079991063e+05
1.663794532633157963e-01,1.392455877250077028e+05
1.670370577644408883e-01,1.391666457555865927e+05
1.676946622655663965e-01,1.390875326502241951e+05
1.683522667666914885e-01,1.390082527825215075e+05
1.690098712678164972e-01,1.389288112052495999e+05
1.696674757689420054e-01,1.388492180374102027e+05
1.703250802700675137e-01,1.387694777008877136e+05
1.709826847711926057e-01,1.386895987374793040e+05
1.716402892723180862e-01,1.386095869214161939e+05
1.722978937734432059e-01,1.385294472906457086e+05
1.729554982745686864e-01,1.384491902673701115e+05
1.736131027756938061e-01,1.383688207141889143e+05
1.742707072768187870e-01,1.382883483834261133e+05
1.749283117779442953e-01,1.382077777004564123e+05
1.755859162790693873e-01,1.381271172772069986e+05
1.762435207801948955e-01,1.380463706367567065e+05
1.769011252813199875e-01,1.379655433207667083e+05
1.775587297824454958e-01,1.378846371034428885e+05
1.782163342835705044e-01,1.378036569704306021e+05
1.788739387846960127e-01,1.377226049392182031e+05
1.795315432858211047e-01,1.376414855806790001e+05
1.801891477869461966e-01,1.375603013433789893e+05
1.808467522880720935e-01,1.374790545247253904e+05
1.815043567891967136e-01,1.373977491793307126e+05
1.821619612903226937e-01,1.373163892958532088e+05
1.828195657914478134e-01,1.372349813061525056e+05
1.834771702925727943e-01,1.371535295437531895e+05
1.841347747936983026e-01,1.370720417882892943e+05
1.847923792948238109e-01,1.369905225503345137e+05
1.854499837959484865e-01,1.369089795961737982e+05
1.861075882970739948e-01,1.368274161511900893e+05
1.867651927981995030e-01,1.367458385025323951e+05
1.874227972993245117e-01,1.366642480417476909e+05
1.880804018004499922e-01,1.365826497421078966e+05
1.887380063015751119e-01,1.365010448189892923e+05
1.893956108027005925e-01,1.364194370851164858e+05
1.900532153038257122e-01,1.363378271939748083e+05
1.907108198049511927e-01,1.362562145870972017e+05
1.913684243060763124e-01,1.361746001247864042e+05
1.920260288072012933e-01,1.360929872304507880e+05
1.926836333083268016e-01,1.360113760869521939e+05
1.933412378094518935e-01,1.359297729759277136e+05
1.939988423105774018e-01,1.358481799448422098e+05
1.946564468117024937e-01,1.357666047770727018e+05
1.953140513128280020e-01,1.356850514248127001e+05
1.959716558139530107e-01,1.356035260679234052e+05
1.966292603150784912e-01,1.355220349801648990e+05
1.972868648162041105e-01,1.354405823787765112e+05
1.979444693173287029e-01,1.353591734445599141e+05
1.986020738184542112e-01,1.352778096441318921e+05
1.992596783195796917e-01,1.351964981892085925e+05
1.999172828207048114e-01,1.351152399336833041e+05
2.005748873218302919e-01,1.350340350542922097e+05
2.012324918229558002e-01,1.349528853542020079e+05
2.018900963240803925e-01,1.348717897776296886e+05
2.025477008252062894e-01,1.347907483878968924e+05
2.032053053263314091e-01,1.347097639426038950e+05
2.038629098274565010e-01,1.346288362305884948e+05
2.045205143285820093e-01,1.345479702472652134e+05
2.051781188297069902e-01,1.344671682787752943e+05
2.058357233308326095e-01,1.343864352395177120e+05
2.064933278319575904e-01,1.343057746911885915e+05
2.071509323330830987e-01,1.342251938742343045e+05
2.078085368342081907e-01,1.341446956293940893e+05
2.084661413353336989e-01,1.340642872987352021e+05
2.091237458364587909e-01,1.339839715470026131e+05
2.097813503375837996e-01,1.339037559019030014e+05
2.104389548387093078e-01,1.338236424929480127e+05
2.110965593398343998e-01,1.337436363860008132e+05
2.117541638409599081e-01,1.336637375067477114e+05
2.124117683420850000e-01,1.335839470066482900e+05
2.130693728432105083e-01,1.335042660017732996e+05
2.137269773443359888e-01,1.334246936503982870e+05
2.143845818454611085e-01,1.333452312086246093e+05
2.150421863465860894e-01,1.332658796619666100e+05
2.156997908477115977e-01,1.331866387616491120e+05
2.163573953488366897e-01,1.331075110842995928e+05
2.170149998499618094e-01,1.330284986655210087e+05
2.176726043510877062e-01,1.329496050391928002e+05
2.183302088522127982e-01,1.328708338930511964e+05
2.189878133533378068e-01,1.327921884857988916e+05
2.196454178544632874e-01,1.327136745877292124e+05
2.203030223555889067e-01,1.326352968533099047e+05
2.209606268567138876e-01,1.325570594004016893e+05
2.216182313578390073e-01,1.324789689955867070e+05
2.222758358589644878e-01,1.324010292318660941e+05
2.229334403600896075e-01,1.323232411100692116e+05
2.235910448612150880e-01,1.322456091089493129e+05
2.242486493623400967e-01,1.321681313352654106e+05
2.249062538634656050e-01,1.320908109311829903e+05
2.255638583645906969e-01,1.320136463298971939e+05
2.262214628657162052e-01,1.319366382369842031e+05
2.268790673668412972e-01,1.318597866315142892e+05
2.275366718679663058e-01,1.317830920600726968e+05
2.281942763690917864e-01,1.317065539402909053e+05
2.288518808702169061e-01,1.316301738720368012e+05
2.295094853713423866e-01,1.315539526376796130e+05
2.301670898724678949e-01,1.314778921929252974e+05
2.308246943735929868e-01,1.314019946085326083e+05
2.314822988747181065e-01,1.313262635916639119e+05
2.321399033758440034e-01,1.312507017757135909e+05
2.327975078769685957e-01,1.311753120238556876e+05
2.334551123780936877e-01,1.311001000405139930e+05
2.341127168792196123e-01,1.310250705513188004e+05
2.347703213803447042e-01,1.309502254757670016e+05
2.354279258814697962e-01,1.308755659736772068e+05
2.360855303825953044e-01,1.308010949583413021e+05
2.367431348837208127e-01,1.307268126762088068e+05
2.374007393848454051e-01,1.306527208393859037e+05
2.380583438859714129e-01,1.305788187734386011e+05
2.387159483870963939e-01,1.305051077004317049e+05
2.393735528882215136e-01,1.304315854072436050e+05
2.400311573893469941e-01,1.303582531396192935e+05
2.406887618904721138e-01,1.302851083827801049e+05
2.413463663915975943e-01,1.302121520267190936e+05
2.420039708927226030e-01,1.301393825983879942e+05
2.426615753938481113e-01,1.300668007854127936e+05
2.433191798949732032e-01,1.299944062774240010e+05
2.439767843960987115e-01,1.299222011242709996e+05
2.446343888972238034e-01,1.298501850261780928e+05
2.452919933983488121e-01,1.297783623793824954e+05
2.459495978994742926e-01,1.297067323964401003e+05
2.466072024005994123e-01,1.296353017958823038e+05
2.472648069017253925e-01,1.295640703711551032e+05
2.479224114028500126e-01,1.294930408960164059e+05
2.485800159039759094e-01,1.294222144806506985e+05
2.492376204051010014e-01,1.293515928812518978e+05
2.498952249062260933e-01,1.292811770279030025e+05
2.505528294073515738e-01,1.292109677593662054e+05
2.512104339084765825e-01,1.291409646843454975e+05
2.518680384096020908e-01,1.290711689673968067e+05
2.525256429107272105e-01,1.290015784626802051e+05
2.531832474118527188e-01,1.289321924212034064e+05
2.538408519129777829e-01,1.288630104963041958e+05
2.544984564141032912e-01,1.287940291212511947e+05
2.551560609152284109e-01,1.287252492950675951e+05
2.558136654163539192e-01,1.286566672655191942e+05
2.564712699174788724e-01,1.285882837334549986e+05
2.571288744186039921e-01,1.285200970166079060e+05
2.577864789197295003e-01,1.284521078336173960e+05
2.584440834208546200e-01,1.283843145420460060e+05
2.591016879219800728e-01,1.283167207917722990e+05
2.597592924231055811e-01,1.282493247608928068e+05
2.604168969242305898e-01,1.281821309476314054e+05
2.610745014253557095e-01,1.281151387494577066e+05
2.617321059264817174e-01,1.280483513805836992e+05
2.623897104276067260e-01,1.279817681216380006e+05
2.630473149287312906e-01,1.279153921208167012e+05
2.637049194298572985e-01,1.278492220410825976e+05
2.643625239309824182e-01,1.277832594508850016e+05
2.650201284321074269e-01,1.277175039075764071e+05
2.656777329332328796e-01,1.276519555010400945e+05
2.663353374343583879e-01,1.275866122470151022e+05
2.669929419354835076e-01,1.275214748410353932e+05
2.676505464366090159e-01,1.274565393858734024e+05
2.683081509377340801e-01,1.273918054076865956e+05
2.689657554388590888e-01,1.273272704650623054e+05
2.696233599399847081e-01,1.272629322960572026e+05
2.702809644411097167e-01,1.271987897839374054e+05
2.709385689422352250e-01,1.271348401984259981e+05
2.715961734433602892e-01,1.270710819910435966e+05
2.722537779444857975e-01,1.270075158535099035e+05
2.729113824456109172e-01,1.269441392281449953e+05
2.735689869467364255e-01,1.268809528422581061e+05
2.742265914478613786e-01,1.268179574135386938e+05
2.748841959489868869e-01,1.267551524061738019e+05
2.755418004501120066e-01,1.266925409875549958e+05
2.761994049512375149e-01,1.266301218671695970e+05
2.768570094523630232e-01,1.265678992895637930e+05
2.775146139534875878e-01,1.265058717797075951e+05
2.781722184546135956e-01,1.264440418859911006e+05
2.788298229557387153e-01,1.263824091245887976e+05
2.794874274568642236e-01,1.263209742060782010e+05
2.801450319579891768e-01,1.262597370190715010e+05
